Subject;Session;Study;Task;Contraction_Mode;Recording;Muscle;Intensity;Num_Reps;DPF_Method;OLS_Status;SmO2_Channels;Mean_Max_HbO_S2_D1;Std_Max_HbO_S2_D1;Mean_Min_HbO_S2_D1;Std_Min_HbO_S2_D1;Mean_Slope_HbO_S2_D1;Std_Slope_HbO_S2_D1;Mean_AUC_HbO_S2_D1;Std_AUC_HbO_S2_D1;Mean_Max_HbR_S2_D1;Std_Max_HbR_S2_D1;Mean_Min_HbR_S2_D1;Std_Min_HbR_S2_D1;Mean_Slope_HbR_S2_D1;Std_Slope_HbR_S2_D1;Mean_AUC_HbR_S2_D1;Std_AUC_HbR_S2_D1;Mean_Max_HbDiff_S2_D1;Std_Max_HbDiff_S2_D1;Mean_Min_HbDiff_S2_D1;Std_Min_HbDiff_S2_D1;Mean_Slope_HbDiff_S2_D1;Std_Slope_HbDiff_S2_D1;Mean_AUC_HbDiff_S2_D1;Std_AUC_HbDiff_S2_D1;Mean_Max_HbTot_S2_D1;Std_Max_HbTot_S2_D1;Mean_Min_HbTot_S2_D1;Std_Min_HbTot_S2_D1;Mean_Slope_HbTot_S2_D1;Std_Slope_HbTot_S2_D1;Mean_AUC_HbTot_S2_D1;Std_AUC_HbTot_S2_D1;Mean_Max_HbO_S1_D2;Std_Max_HbO_S1_D2;Mean_Min_HbO_S1_D2;Std_Min_HbO_S1_D2;Mean_Slope_HbO_S1_D2;Std_Slope_HbO_S1_D2;Mean_AUC_HbO_S1_D2;Std_AUC_HbO_S1_D2;Mean_Max_HbR_S1_D2;Std_Max_HbR_S1_D2;Mean_Min_HbR_S1_D2;Std_Min_HbR_S1_D2;Mean_Slope_HbR_S1_D2;Std_Slope_HbR_S1_D2;Mean_AUC_HbR_S1_D2;Std_AUC_HbR_S1_D2;Mean_Max_HbDiff_S1_D2;Std_Max_HbDiff_S1_D2;Mean_Min_HbDiff_S1_D2;Std_Min_HbDiff_S1_D2;Mean_Slope_HbDiff_S1_D2;Std_Slope_HbDiff_S1_D2;Mean_AUC_HbDiff_S1_D2;Std_AUC_HbDiff_S1_D2;Mean_Max_HbTot_S1_D2;Std_Max_HbTot_S1_D2;Mean_Min_HbTot_S1_D2;Std_Min_HbTot_S1_D2;Mean_Slope_HbTot_S1_D2;Std_Slope_HbTot_S1_D2;Mean_AUC_HbTot_S1_D2;Std_AUC_HbTot_S1_D2;Mean_Max_HbO_S2_D3;Std_Max_HbO_S2_D3;Mean_Min_HbO_S2_D3;Std_Min_HbO_S2_D3;Mean_Slope_HbO_S2_D3;Std_Slope_HbO_S2_D3;Mean_AUC_HbO_S2_D3;Std_AUC_HbO_S2_D3;Mean_Max_HbR_S2_D3;Std_Max_HbR_S2_D3;Mean_Min_HbR_S2_D3;Std_Min_HbR_S2_D3;Mean_Slope_HbR_S2_D3;Std_Slope_HbR_S2_D3;Mean_AUC_HbR_S2_D3;Std_AUC_HbR_S2_D3;Mean_Max_HbDiff_S2_D3;Std_Max_HbDiff_S2_D3;Mean_Min_HbDiff_S2_D3;Std_Min_HbDiff_S2_D3;Mean_Slope_HbDiff_S2_D3;Std_Slope_HbDiff_S2_D3;Mean_AUC_HbDiff_S2_D3;Std_AUC_HbDiff_S2_D3;Mean_Max_HbTot_S2_D3;Std_Max_HbTot_S2_D3;Mean_Min_HbTot_S2_D3;Std_Min_HbTot_S2_D3;Mean_Slope_HbTot_S2_D3;Std_Slope_HbTot_S2_D3;Mean_AUC_HbTot_S2_D3;Std_AUC_HbTot_S2_D3;Mean_Max_HbO_S1_D4;Std_Max_HbO_S1_D4;Mean_Min_HbO_S1_D4;Std_Min_HbO_S1_D4;Mean_Slope_HbO_S1_D4;Std_Slope_HbO_S1_D4;Mean_AUC_HbO_S1_D4;Std_AUC_HbO_S1_D4;Mean_Max_HbR_S1_D4;Std_Max_HbR_S1_D4;Mean_Min_HbR_S1_D4;Std_Min_HbR_S1_D4;Mean_Slope_HbR_S1_D4;Std_Slope_HbR_S1_D4;Mean_AUC_HbR_S1_D4;Std_AUC_HbR_S1_D4;Mean_Max_HbDiff_S1_D4;Std_Max_HbDiff_S1_D4;Mean_Min_HbDiff_S1_D4;Std_Min_HbDiff_S1_D4;Mean_Slope_HbDiff_S1_D4;Std_Slope_HbDiff_S1_D4;Mean_AUC_HbDiff_S1_D4;Std_AUC_HbDiff_S1_D4;Mean_Max_HbTot_S1_D4;Std_Max_HbTot_S1_D4;Mean_Min_HbTot_S1_D4;Std_Min_HbTot_S1_D4;Mean_Slope_HbTot_S1_D4;Std_Slope_HbTot_S1_D4;Mean_AUC_HbTot_S1_D4;Std_AUC_HbTot_S1_D4;Mean_Max_HbO_S1_D1;Std_Max_HbO_S1_D1;Mean_Min_HbO_S1_D1;Std_Min_HbO_S1_D1;Mean_Slope_HbO_S1_D1;Std_Slope_HbO_S1_D1;Mean_AUC_HbO_S1_D1;Std_AUC_HbO_S1_D1;Mean_Max_HbR_S1_D1;Std_Max_HbR_S1_D1;Mean_Min_HbR_S1_D1;Std_Min_HbR_S1_D1;Mean_Slope_HbR_S1_D1;Std_Slope_HbR_S1_D1;Mean_AUC_HbR_S1_D1;Std_AUC_HbR_S1_D1;Mean_Max_HbDiff_S1_D1;Std_Max_HbDiff_S1_D1;Mean_Min_HbDiff_S1_D1;Std_Min_HbDiff_S1_D1;Mean_Slope_HbDiff_S1_D1;Std_Slope_HbDiff_S1_D1;Mean_AUC_HbDiff_S1_D1;Std_AUC_HbDiff_S1_D1;Mean_Max_HbTot_S1_D1;Std_Max_HbTot_S1_D1;Mean_Min_HbTot_S1_D1;Std_Min_HbTot_S1_D1;Mean_Slope_HbTot_S1_D1;Std_Slope_HbTot_S1_D1;Mean_AUC_HbTot_S1_D1;Std_AUC_HbTot_S1_D1;Mean_Max_HbO_S1_D3;Std_Max_HbO_S1_D3;Mean_Min_HbO_S1_D3;Std_Min_HbO_S1_D3;Mean_Slope_HbO_S1_D3;Std_Slope_HbO_S1_D3;Mean_AUC_HbO_S1_D3;Std_AUC_HbO_S1_D3;Mean_Max_HbR_S1_D3;Std_Max_HbR_S1_D3;Mean_Min_HbR_S1_D3;Std_Min_HbR_S1_D3;Mean_Slope_HbR_S1_D3;Std_Slope_HbR_S1_D3;Mean_AUC_HbR_S1_D3;Std_AUC_HbR_S1_D3;Mean_Max_HbDiff_S1_D3;Std_Max_HbDiff_S1_D3;Mean_Min_HbDiff_S1_D3;Std_Min_HbDiff_S1_D3;Mean_Slope_HbDiff_S1_D3;Std_Slope_HbDiff_S1_D3;Mean_AUC_HbDiff_S1_D3;Std_AUC_HbDiff_S1_D3;Mean_Max_HbTot_S1_D3;Std_Max_HbTot_S1_D3;Mean_Min_HbTot_S1_D3;Std_Min_HbTot_S1_D3;Mean_Slope_HbTot_S1_D3;Std_Slope_HbTot_S1_D3;Mean_AUC_HbTot_S1_D3;Std_AUC_HbTot_S1_D3;Mean_Max_HbO_S2_D5;Std_Max_HbO_S2_D5;Mean_Min_HbO_S2_D5;Std_Min_HbO_S2_D5;Mean_Slope_HbO_S2_D5;Std_Slope_HbO_S2_D5;Mean_AUC_HbO_S2_D5;Std_AUC_HbO_S2_D5;Mean_Max_HbR_S2_D5;Std_Max_HbR_S2_D5;Mean_Min_HbR_S2_D5;Std_Min_HbR_S2_D5;Mean_Slope_HbR_S2_D5;Std_Slope_HbR_S2_D5;Mean_AUC_HbR_S2_D5;Std_AUC_HbR_S2_D5;Mean_Max_HbDiff_S2_D5;Std_Max_HbDiff_S2_D5;Mean_Min_HbDiff_S2_D5;Std_Min_HbDiff_S2_D5;Mean_Slope_HbDiff_S2_D5;Std_Slope_HbDiff_S2_D5;Mean_AUC_HbDiff_S2_D5;Std_AUC_HbDiff_S2_D5;Mean_Max_HbTot_S2_D5;Std_Max_HbTot_S2_D5;Mean_Min_HbTot_S2_D5;Std_Min_HbTot_S2_D5;Mean_Slope_HbTot_S2_D5;Std_Slope_HbTot_S2_D5;Mean_AUC_HbTot_S2_D5;Std_AUC_HbTot_S2_D5;Mean_Max_SmO2;Std_Max_SmO2;Mean_Min_SmO2;Std_Min_SmO2;Mean_Slope_SmO2;Std_Slope_SmO2;Mean_SmO2_value;Std_SmO2_value;Mean_AUC_SmO2;Std_AUC_SmO2
001;001;Valoxy;Isometric;Isometric;semaxone;VL;20%;5;Dynamic_ATT4.6mm_scanner;Not_Applied;S1_D1+S1_D3+S1_D2+S1_D4;3,150817741585056;0,63736830872775;-1,7881788593359427;0,34755158697438104;1,5048378047598532;0,9646537902424813;10,168168914349291;2,9039671399356073;4,029412698846196;0,3043493050575279;2,030277137223899;0,5570178705819029;-0,48254995880878565;0,44300599978644656;30,262990596957657;3,578129385562115;-0,09533373773939999;1,0610092086256713;-5,11277709225967;0,6572941453036333;3,1310800312750184;1,2144704564886566;34,1371732023522;4,7662290706577775;6,476687908092157;0,6673317610599125;0,8372620513168391;0,3996724882121895;0,3206128194997015;1,013313973164144;26,840499910242613;4,207840203065634;2,5332179248787274;0,696204187232231;-6,4479494288830015;4,317530583881562;3,6849096770868472;3,4240717571528863;24,712312863482094;16,58817832521903;5,540035154337963;1,2963091155052746;2,3222073245039327;0,4943516390209695;-1,0026850380700718;0,9109910132955952;36,722863561056556;6,2160770535123016;-0,13017951332891492;1,131072946908981;-11,367733919478422;6,122351821128966;6,089266265048001;3,5414424244849285;56,57941009373324;23,394268762769197;5,334550000387692;0,45819356242077264;-1,6523445132248569;2,3935956841524835;2,807510530175768;2,431120937060765;24,523361187328;6,374135407703618;4,357469772230504;0,5706721336187545;-0,10022151844171445;0,30457432827272873;-1,0994149118338103;0,36030872687992854;29,870799281184304;4,485533821458926;2,6350439106457872;0,3028067745844513;1,2443087304119893;0,34947296185240584;-0,20335314023691903;0,6654728452537073;19,2524091889266;2,9678502836044998;2,425009790569689;0,8000051559466023;-2,0141584266370582;0,48422275590922464;-0,7088588219761218;0,4196886583597773;18,090405336475374;4,893441971051106;6,958774551034689;0,3657405058730413;1,799750446374905;0,33389014514933163;-1,2989313816468786;0,17170527206377934;48,99724292962953;1,6490091383872654;6,144389870023072;0,7302445772115477;-0,29684042895417767;0,3822690284752629;-1,67379861651665;0,5477323009403727;41,51212203358349;4,89077957469023;4,677304095948303;0,23383713888887225;2,2512738589173478;0,46350160491123094;-0,8173250329563532;0,3016986548851734;34,02241281531529;2,639510362509466;2,338919231563166;0,7518102274298634;-2,7221461456319753;0,601014430996485;-0,8128963207110587;0,4287318251252209;18,621000882766;4,271512939645834;10,813097150742266;0,641611462681007;2,108677646648979;0,38649142216163745;-2,1929537570880413;0,20716428144538795;75,14148361628182;3,2815788155444965;4,592511060983017;1,3157976257157644;-6,951592278639251;2,881354956802349;3,422242649519336;2,2905862553981104;40,88426606348324;15,16336186982454;3,649382288232516;0,646835097054603;0,4411037693209147;0,27251642537361737;-1,1531360548027423;0,4708557337515134;23,657630380129643;3,550159441261698;3,9124270396647463;1,4728034553147766;-10,42587286870131;3,6593844203130335;5,744372824651199;2,958555601772051;62,147655264412876;18,360204241575527;5,336735674456532;1,164623833029361;-3,493387206031078;2,087692202767007;2,7083038051195976;1,840414763377127;21,64313424512346;11,123963373166392;0,9917842758930823;0,4942909578426217;-1,8739470063563484;1,0657974305467421;0,3915127417629917;0,13510148045470857;10,644388873031954;5,893757809416299;2,1602942110207293;0,3474359774541707;0,5559795045350597;0,15723958281083178;-1,3745636406531543;0,3832654468087152;14,320704235516043;2,046817212164307;0,30986772373253435;0,6130655178619218;-3,7591375719067712;1,3339152042782831;1,870264733536485;0,5971435807988258;23,093666053585864;7,557228924236317;1,7073328867535733;0,37076047901833903;-0,2329173939184578;0,6978130607080782;0,26855259169070894;0,08960224768912498;8,44958353129977;1,2262016422538664;2,363411677480426;0,544877993109413;-0,3350184165186982;0,9391894640658137;-0,8304874727444087;0,33460398387725204;15,112652244160415;4,465764637931858;1,3187245733396962;0,3332938482689336;-0,1750740208314066;0,39065662137236795;-0,4915636095769207;0,20564418023724754;7,581177194814418;2,1366890250290287;1,9495857509863597;0,4508637366487827;-0,601935235312889;0,6452577342016065;-0,6297208755727606;0,5514444035639198;9,020596942006616;4,009544784297761;3,260081644897626;0,6710935961945772;-0,24891701863262145;1,1292140243140611;-0,9286311151323318;0,3680937124306381;22,2425951731716;4,99330737317999;78,24881147265653;0,7828785454329077;75,5541359916987;1,5094779146958515;-0,19252208364899123;0,799978647632049;77,21214275872809;0,9037072884038904;772,0735290445429;9,063462975618775
001;001;Valoxy;Isometric;Isometric;semaxone;VL;40%;5;Dynamic_ATT4.6mm_scanner;Not_Applied;S1_D1+S1_D3+S1_D2+S1_D4;-2,113790442617578;0,8632149445681102;-10,781193037441358;1,1703927675373844;3,581107713304994;2,1558029663652576;65,4372116773142;10,261641091414953;10,209186711757626;0,92522195840809;4,39349317376218;0,7280254777735644;0,41818587302837446;0,9879385470443988;72,29114970947305;7,5962162697413795;-7,953536730737532;1,6834300904376682;-19,76520106204897;0,8740824428485492;3,8814401129175016;2,0645688518068894;137,72836138678724;8,285422549589041;7,132480049578094;1,3992047073799423;-2,7211514524178626;1,7404424005852388;2,271031635836162;1,3926716369269985;29,34354184629317;6,533946109234157;-2,270676289339548;0,8320033287120299;-26,6819751988642;4,181321337039813;11,68254780176893;8,867255338081549;154,92699736993072;25,770532672632832;13,355198885530447;1,009817905347621;6,205010629513016;0,658068816389864;-1,1788834334511993;1,1027347410185895;99,33908924169043;9,161023948284248;-8,631764807864084;1,5014445844343425;-39,61859589894101;4,300670008929526;9,6462866977365;7,75777576732829;254,26608661162118;30,83516077864459;6,467643317973595;1,3599577930870885;-14,831450838320169;3,8093232748118053;6,761223447126154;5,043129659035754;90,498271610196;19,221367644333704;4,226129946445452;0,17221156758194664;-2,592178699439311;0,442958906022054;-0,8023664609673593;0,0541472237417387;24,53497384234127;2,560964344498867;7,672374373021951;0,6067065453485365;3,6112901090694285;0,4737666713323577;0,7010856026204237;0,04209416738717398;58,42118208408634;5,55524811358616;0,57507429426788;0,5146710053521675;-8,764080080249318;0,5881329165925051;-1,1239078795257584;0,07985096503585111;47,31773321628085;4,7963062705539725;9,12142713788971;0,8755798350850251;2,796271855640076;0,4812262223475735;-1,3473486293829902;0,3290276638207866;70,33672195210444;6,6854861636620795;4,422231550564442;0,3621794972336916;-3,440090257961139;0,47407420740123263;-0,9266963800530414;0,09035746846881121;26,920648781144358;2,0283827683192577;9,991716082389255;0,5724556609118227;5,00145315500886;0,589903698361826;0,42285781533994016;0,8288676812390631;75,18340962021611;5,749578878966598;-0,7325962809997477;0,437006617703507;-10,75594295730678;0,8565614802127127;-1,2522404189120917;0,12733111853332324;66,30380970058016;6,014260316984182;11,119697554588582;1,1232792160296905;2,967529816350747;0,4596143457397999;-1,7760173797982717;0,4527311932112363;84,06300953985205;7,461917565476953;2,940922979719508;1,0528374889905519;-19,085124413641186;1,5194329250894245;12,770134046300305;7,623654709636254;109,374840140001;11,743865854169337;7,376787610552793;0,11286871331486525;1,7348449819700165;0,14760535695492033;-1,320471248925599;0,06786983997424118;51,155956358176375;1,1874369803072953;0,2602078580185176;0,9439344095554119;-26,286721093296222;1,5499095212306322;15,197137883727908;9,065780266923023;155,57307079899522;13,262087094386745;5,631583174029528;1,1812039325100803;-11,926703542082675;1,5814507711341366;6,436046606395621;4,506458271110857;72,97150620188161;8,341759052453943;2,2960943363669295;1,3068280374459142;-0,5393428317120632;0,6729516812378998;-0,715583016963176;0,2782593159236664;13,255203997603767;7,541585629814693;4,237818015925795;0,29442220944007313;1,6520309671676021;0,159761511271552;-0,9176515166778823;0,6470242391063649;30,14851544356261;2,0583759723404578;-0,20314480589231027;1,1445647600203683;-3,644420334364542;1,4824328456652536;2,2834961555937268;2,454797735571081;23,5203989733845;11,904978232591807;5,378939220430197;1,5707433296155955;1,198081797724479;0,6842147861326334;-0,9191665868427743;0,36158046189169485;38,225537765688074;11,268391753018557;9,8440760775991;4,506794389743468;3,1301535623897436;4,420422448576019;-0,7387889447632932;0,15484780347946986;74,71079754190166;44,98879434863412;5,7280760179787205;2,6954035635041684;2,42753227187833;2,06991172235102;-1,3235847186194385;0,6378169715161452;40,356375902281954;25,1624455623997;5,883931197369415;2,145695636195604;0,39788516910270066;2,309351893367453;-0,8274719904276049;0,34862500870431157;37,02300950099557;19,898935623305753;14,201455703198132;7,202809545764021;5,852035059072669;6,574612202363158;-1,3381449859121186;0,32105534630713184;114,89924544732692;69,53940933938203;68,57478322913373;1,7941543398235116;60,23831669690496;2,311582976150268;0,6348124406757775;1,757087385371987;64,41827364061275;1,977723866010908;643,8922722747762;19,82657741639583
001;001;Valoxy;Isometric;Isometric;semaxone;VL;60%;5;Dynamic_ATT4.6mm_scanner;Not_Applied;S1_D1+S1_D3+S1_D2+S1_D4;-5,398656645647192;1,5967496428157768;-15,145464859232671;2,742829117131007;2,2695645094506367;0,5329966153954603;107,50380157200368;20,421932688316012;14,673049936096902;0,6897354906635716;5,394667450075427;1,6316249957788207;1,3875169059204464;0,13650064980423862;100,2689500161762;9,567977953517104;-13,452918587131498;1,6339846020965607;-27,067917532882348;2,17583827559247;2,1381622364884216;2,442847224556566;207,77275158817983;15,52958313050231;6,706293762083528;1,826290845733737;-4,800169910955651;3,554546759733069;2,0336987453208715;0,5710062877951759;41,54264896528541;15,171467066742778;-3,973114049462076;0,6517281113149995;-9,30744078717632;0,7294835808983232;-0,07223761674315683;1,0761496825013626;68,56974903213509;2,247152377300613;13,677030970833936;0,5104197186588229;5,177247202079942;1,5084423711409956;1,2574558255840234;0,15498533249261598;96,67865367639574;8,922875819049425;-9,83230117003824;2,5266753773186172;-21,549582019387366;0,7072058193953629;-1,8578231642746406;0,43670787033296304;165,24840270853085;8,940126000476834;6,888106344682191;1,3476019619683353;0,4098495257831621;0,989172505090977;0,9984582956197048;0,2122747016590145;29,58257184905787;6,920869513603383;4,986743396764458;1,0738805072346953;-4,499298880127957;0,7370806699612032;-1,1573459224367035;0,12438112965430546;29,51620914391496;6,195558170093353;11,606899671298972;0,2246614381730395;5,593149439026618;0,9535521000064932;0,5003948827024972;0,9571865261307366;91,85800293098549;4,529314847433937;-0,7340800252883485;1,5603078050483363;-14,200173602497538;1,0487772432590856;-1,860619956046238;0,38070149485374244;90,40294664076285;10,097575135472256;12,037013531858397;1,6687168664780556;3,464223320975517;0,3538101701214945;-1,8962853850302852;0,4533493395010294;93,57727364622906;12,299202235769966;3,2516164943903227;1,3793123636736229;-6,070133093491515;0,8763161286844705;-1,2348717534322575;0,14613279223985665;31,45022582215911;4,462732133108838;13,136489783788676;0,391107027325923;5,938205289926002;1,4201144666281338;0,6096112356790072;1,119459583374174;101,12710142088244;8,135015602292832;-2,7216856426721763;1,6602063191997365;-17,858436403238144;1,249168241174262;-2,122616436212099;0,3966712598529378;119,84606099758632;10,50887777003923;10,395815702375621;2,543033830290502;3,242835110817102;0,7535203702135735;-1,5922345977610175;0,5417482828049771;82,40814184417857;19,08842724123166;1,2501800761381072;1,945668167885062;-14,093423720535139;1,0692562290257077;4,796561443678582;3,625075148615904;84,92218478694049;6,7664034684860495;6,150109481608971;0,6046919286635278;2,5802964752282596;0,2133210364111378;-0,8309252655454722;0,18697766804274168;46,75660353158362;4,977231623011724;-2,363504263381535;1,8940168211709478;-19,855312934283905;0,662105034679256;6,2120322443733995;4,797568682586549;127,10059849386862;4,474766448599582;4,936412045491344;2,025853344627901;-8,746048713041267;1,439171381377488;2,488998825131728;0,33644247898511476;55,205660296676264;5,5962822279927895;8,922866475900758;1,6488729924795493;-0,8313110661906778;1,133218874620561;-1,6163028581663088;0,5559747456129941;59,35019835738471;9,446991499682722;4,547697826643896;0,8991609191540613;2,1716299940891224;0,49059971834510935;-0,06824446293841653;0,4986973048493691;34,02524744760546;4,700730400169222;6,003193382883421;2,419121597609117;-3,857379059767927;1,746290862994477;-1,2519320012817796;0,3844663134948749;40,150453397767684;12,590859247816814;12,762221441726066;0,8417515873579221;2,1010248715070112;0,8509872851322382;-2,31325209609478;0,7212604137587064;90,18827292309152;6,560308685796447;22,699459711342435;3,5137793396105885;-0,16454237600368807;1,8018363675406555;-3,321000327420176;1,1582023754242903;150,38777819034243;28,25154516972086;10,687209209744333;0,5813070641959088;1,9959129459444689;0,4042186480087848;-4,3365321430746375;2,4987292575741655;73,3012626254734;3,687134351981282;13,64658713331188;3,802951848708529;-2,7750094399433074;1,837334699515267;-1,822704937724708;0,2410440909547018;85,57543283139702;26,108168282229105;32,903952590917854;3,483328217468628;2,2818312530343556;1,8045660100633423;-6,618157757224708;1,4643789749128269;221,6037916958926;29,919521841937005;68,00949442653774;2,5222872863456196;55,076368149606495;0,963011747678252;-1,9609465166014988;0,2513277227994049;61,081707615451464;1,7256439576408955;610,4412881333501;17,29463976601964
001;002;Valoxy;Isometric;Isometric;semaxone;VM;20%;5;Dynamic_ATT4.6mm_other_session_fallback;Not_Applied;S1_D1+S1_D3+S1_D2+S1_D4;2,0812391331746336;1,726220986627338;-2,7133231097704935;1,381995719081161;-3,1872087715429727;1,5948542302848494;18,28156864429633;3,313525241378435;3,1740111792363157;1,0782793422175299;-0,2144441637760547;0,6845122430214919;0,4046108241918148;0,07697942429339735;19,350543567344893;5,743647553316581;1,4676662640585771;1,62402632073658;-5,648087783587067;2,2554397598873375;-0,9987792360965233;0,17078654818162367;32,31850593315816;9,918187515018756;4,354652970337677;1,301000479654623;0,06501299741710734;1,1688827833746862;-3,472215043955006;2,18701052398934;16,688866238046998;10,633423143942183;-1,809291930588103;1,7246819260288637;-6,7369678935215465;1,7772057927123999;0,9183475224347657;0,3203380563721345;46,878751705594595;13,477663398458082;3,8101942658362042;1,2362573149036653;1,8112872710103052;0,5616563119056971;0,3319236063716529;0,059244354731119525;29,59093522137109;10,195668224386571;-5,0422878802430695;2,27315285163164;-10,0267767892128;2,5795235485601116;2,0616292539233254;1,2268188054965334;75,72606279962113;20,97120341109863;1,5307502738247025;1,9325590991585664;-4,054722896721752;1,0382468262283333;0,7342537673506966;0,18900166650935543;26,64600409762047;4,362118459856695;-1,7710277436947286;1,5429862388194249;-7,183062381447901;1,697211387735658;1,380612130200598;0,43075057312657083;50,02119092627708;13,042887742003563;5,356514221688138;1,0048215398929319;2,963161379354635;0,5765195128810072;-0,13581169006627766;0,6934389411110847;41,4467530387014;8,934111381950757;-5,3830253441778035;2,591877616022631;-12,287626086974177;2,5551365627725473;2,592023269340207;1,345768563331802;91,46249911818397;20,9304668540783;2,045935524206224;0,9520597348141904;-3,2837312714254843;0,8671134017016008;0,6346030973499334;0,11090832882275024;20,016420088829854;4,458678282808473;-1,9245247742590106;1,777007471563654;-8,526990019430873;1,8373867217100648;1,736000121474844;0,536977221301734;55,80085908674096;12,974407422070403;3,3093118719617465;1,3659616144314055;0,4145352114222489;0,8482440107804818;0,3681017834408057;0,0919319982044263;22,343997578747153;9,065704053299491;-4,547352404301503;2,3429894570102605;-10,447546001179626;2,753296003342881;2,229888004611674;1,3595478712222357;75,02285039278709;22,089030897044058;1,016588203908158;2,193894224394115;-7,012345642805485;1,1932626802553923;1,0950365737352725;0,29455494195471066;43,700937230048325;8,284482506900023;3,205183939555828;1,2943024568651589;-1,0210294188749938;1,606154380382577;-2,073849330343695;1,8229015366752324;19,985877375084794;5,863612371242326;0,7646605324103415;0,37372013616070937;-0,6310619661056702;0,1777726582901036;0,20242064188830514;0,05791480006597449;5,080027883776983;1,6954633090729214;3,6090458587298357;1,2463519714896647;-1,7034954873506798;1,9663372349317179;-2,2798457823721643;1,726225082235859;23,9948623160762;4,709592734833026;3,1993987751263684;1,1246667613164025;-0,3580114941078173;1,305915607757701;-2,5092128332440944;1,1977746458222471;16,691730660529025;7,0637153100296315;-0,11824421791424392;0,6203619106756455;-1,9125910549616834;0,5183312022625016;0,3477906296484984;0,36916324620858326;11,14825620913907;4,218211021913798;1,1746791922446278;0,26998453177434373;0,111078676097276;0,18563686918866343;0,13727810353427536;0,026888954347848402;6,981159883250065;2,271534462600205;-0,8051822280307854;0,8268718248975122;-2,856885902781316;0,6656409895012533;0,2149066282592517;0,4583245857639058;17,15969352474046;7,45959464807672;0,8168981601017267;0,5390688088764559;-1,1985546777913525;0,33815138333200745;0,2694122630823432;0,05772054502061304;7,408941141732122;2,5525519123751637;0,5014218528454424;0,9675299911023867;-6,059311174118033;1,5414306148137893;4,410778107669669;2,0295121008198636;33,47853798195734;6,922823050758311;0,33455826149904566;0,35624664847013454;-4,764417145781978;0,22233419384102582;3,166723763225176;1,7303731730070708;26,988636293653588;0,4917738816176038;0,6834828071701622;1,4562453315411932;-1,8016069818110387;1,164460888832062;0,26330438246600263;0,37189102459204076;14,350152626425796;1,3347527386164793;0,7377863204281635;0,7888132097366537;-10,756119169914072;1,736139509213451;9,103630191630636;3,184765476893562;58,27446674828161;6,049860533546703;68,0885211222061;1,2167586905381766;65,49708847860038;1,285889811222511;0,09996301815912476;0,7537111405282035;66,92610547412644;1,2199293457693052;669,2027805104792;12,21197171298673
001;002;Valoxy;Isometric;Isometric;semaxone;VM;40%;5;Dynamic_ATT4.6mm_other_session_fallback;Not_Applied;S1_D1+S1_D3+S1_D2+S1_D4;2,489913010223911;1,1395521562496902;-6,113725782425397;1,467524227124553;-1,244626156623783;0,11356848715362208;26,659834634701497;5,077435030244902;9,371516460863663;1,5091237971735192;0,3451418137032035;1,2868314113307484;1,354582750087615;0,07023342064171394;51,68269520603385;9,571238999181777;2,1447711965207077;2,022891929583556;-14,89172461585009;2,504293632765205;-2,4932653158082814;0,16869793128533225;75,34625127700413;12,08747064064554;6,160474972422237;1,0520656995474809;1,427907861541795;1,136197516738525;-1,2998665778161145;4,774970178515608;29,79624424856464;9,94037830099841;-3,280492830076824;0,4893459806916534;-13,761389923114146;0,8493648835405868;2,537330919164572;0,3581032860779189;89,49330018473246;10,338342429301385;10,2727293332193;2,1683193599215596;2,3253935580849716;1,3507561434996613;1,2474983417980774;0,06604289197745644;64,29294520265981;16,552234372442634;-8,02156055482222;1,2731997394300878;-22,343790377982465;3,036651566802713;2,320089753133098;2,5054020443064227;153,73003212819555;24,59351775892847;2,526293191757199;1,4237770359437218;-5,914011438181972;1,7296627080636868;2,1143301722381844;1,1095593138579;37,3690509573217;5,313957962975516;-3,06487997639963;0,6590610601502422;-15,803774531111793;1,1497542378615042;3,015755994551641;0,5200552631850762;103,29124972033897;13,429562060248212;13,526203269760714;2,2980121977260453;4,224607796910178;1,5212620076072305;0,6584777807474013;1,6644842607349084;90,63343769820902;18,34416507485054;-8,66133295247159;2,1040840681774036;-28,538128638584304;3,6993259570846355;5,036886888632016;1,1448882220263006;193,924687418548;31,394482890759473;3,1731733096281802;0,6167579310409276;-4,284693033216721;1,401010358731677;1,550790404650029;0,7719824626814161;31,304119146430686;5,633632223194613;-3,120251172663817;0,39242350251133207;-17,82229786374775;1,2119047873689648;3,3266759530691816;0,6149141505129038;113,78244882388768;13,830381888148986;10,138623242620648;2,178994234923521;0,12549359215962216;1,4401275508328952;1,5463735252966806;0,07087902181439004;51,93542093541532;11,333003392991245;-7,5152996426082925;1,5832878916795399;-23,720674704005354;3,165827071087652;3,983454548473694;0,989162039727192;163,5197743205322;27,203724129033684;2,4886317971571925;1,1329479484927056;-12,48777019114259;1,6629957447597754;5,696932019186479;1,8073074233405513;76,3672554766115;4,334781575863565;2,180315977336303;1,0029567439049516;-1,7614598407211797;0,7120766038033567;-0,49442870111006415;0,11054608389093956;9,24014580661974;1,5224871143812588;2,099961167519429;0,2232394353765357;-0,4738346486102564;0,45662545851501835;0,3822845519847304;0,07361539377072053;10,936817677043091;1,059387290467223;2,634317888714163;1,4176722833255573;-3,525202102491316;0,9213998276252418;-0,7537196249128473;0,18487861816368298;15,362980829192958;3,09241656981408;2,868142714321329;0,7358789510510607;-0,013217143101206651;0,7599717691556245;-1,9009008420669715;1,2433959905003136;13,816105556863068;4,6908644458384545;-0,1165683620559727;0,5391712729103175;-3,441113682264607;0,4076142368633741;-0,5425130556513045;0,0718579920489428;15,50666089744542;2,2103627448376106;2,9429500091831926;0,3967537779682333;0,2565760053384758;0,3786356065875868;0,4244797392701435;0,04739820462884179;17,342030070388255;2,8206764496701977;-0,37314436739444845;0,7042227831468401;-6,3172230746234135;0,7265740906619574;-0,9581203513812977;0,09762041116534245;32,54619301890717;3,755937964445208;0,9621450234043316;0,4271133405398563;-0,6529004337598766;0,43506754342035125;1,382990131502487;0,6155139440449268;5,030687143047517;1,5386500869244437;0,28508447714932345;0,5072993170595833;-13,231207236494338;0,8421176140924335;4,762400818162024;1,1755227075135108;73,70753542782106;9,314679406814241;1,4123517852407612;0,2437494917118125;-7,52328452243125;0,2515965547575151;1,4372150637771208;0,3448519034588392;46,66659369615258;3,7454816426109954;-0,3658986060015026;0,22541213295071783;-7,153251756601558;0,898847412341176;2,4563399651361517;0,44375432702191403;32,17334172598167;5,244938240258779;1,3242451670372568;0,7414411026259173;-19,892461797100715;1,0756526588303497;12,939776672748522;3,649341010624793;118,23747599649141;12,66444123810131;64,62130390152868;1,6891017590826685;54,12179164400625;3,293548678981531;-0,6461643864398517;2,010702596787682;59,42786955192031;2,490564335400538;593,8411951552177;24,996736105285116
001;002;Valoxy;Isometric;Isometric;semaxone;VM;60%;5;Dynamic_ATT4.6mm_other_session_fallback;Not_Applied;S1_D1+S1_D3+S1_D2+S1_D4;1,2202298895401493;1,434464759760438;-6,668707887859267;1,4017391229261071;-1,0574701015913555;0,13486299736358373;36,88149223537222;9,093591025857382;11,572043285111857;1,8386330628318588;1,2958052005079197;2,5145852079352955;1,6126115568948187;0,23692182260456346;68,39740247758395;15,545000940978136;-0,07557531096777073;3,9092772346587914;-17,068686510230375;2,868923346405273;-2,507809595126065;0,38892957104420367;104,79918702210489;23,655165084363638;7,569100208007552;0,578231416206725;1,7926495844796357;1,2050200291109068;1,472785664288731;3,483979890492853;32,6086944197675;8,305814527216448;-4,689287962713678;1,3974306717501714;-16,648894908885477;1,5317820660072003;2,617075941516287;0,39336237403848145;113,70958111963364;14,383204821282543;13,147115116164565;2,5120722407228455;3,3902361695604455;2,525632267685044;1,5296678873046583;0,12126970203227504;84,05340743363976;24,743118384307092;-10,354254283943323;3,3808653256996535;-27,43522599872577;4,235719301920843;2,8022389227049382;3,023545638866598;197,15627584561054;39,57339493580548;2,011470949293739;1,2824908759052331;-6,716780732796773;2,338070280711892;2,234163032232821;0,7251517208974556;40,81315001144734;10,771157046502417;-5,084381196558963;2,7134099909271683;-17,69601205966712;1,9544015946342772;2,9269478849823622;0,2995535058143067;125,13515350587802;20,69750279391441;16,83604736083895;2,4360583519055163;5,218615850657341;2,8161099597457118;1,8389971554730067;0,21161257189887858;111,66127780563015;25,29135205647487;-12,78071388035628;4,304449198143167;-33,78289185947538;4,458197454800852;1,940556939376578;4,249751282777707;236,79197530253685;44,840517382313436;3,3258381067828595;0,8058014558656363;-4,447296222113908;2,0538634971000524;1,3876238170985298;0,4728849038485712;32,125879420532215;10,957020970519643;-4,475420944833074;1,9411318155521342;-19,56393729787475;1,6002681813189024;3,3488341864187516;0,3369194946248917;131,36798703599158;17,559739406839643;12,7824215326222;2,6993708530678875;0,18874538080754316;2,0142781285468434;1,939234778633277;0,07526566646302564;65,32654981090982;15,912317997441487;-10,27278114186969;4,193067318048615;-26,570899287096392;4,417801125731355;2,767577991143564;2,7972630186491285;192,97113207864106;39,21667129381587;2,5135371775655626;0,921823959923789;-13,412296720393115;2,17234692103549;5,1146840908510525;1,9934971687709275;82,84659427744607;7,904277480368068;3,2676224924910806;0,7982835395357163;-1,2869143056267962;0,7285913016755962;-1,7932996339895269;1,3507306536791361;16,6569969088121;4,970556349099604;2,2423812693217204;0,366807088358324;-0,6021118759129144;0,6466057711909434;0,41242435747891004;0,08846193511699856;13,024558765873644;1,6493898842186863;3,678809068039913;0,9703802691057043;-3,359813347433301;0,7615513815815255;-0,889750940250107;0,15213487792232447;20,231905957943464;5,721930518686362;4,688478816776414;0,807528964266267;0,5189105761639616;0,7206748872505538;-0,14945314638003898;2,6049030629558665;22,43000541928115;9,384795878641267;1,5739732913167996;0,6028686982229995;-2,9111605775092895;0,7848991119498471;-0,634387069495036;0,10608518410568786;13,757010945336138;4,157015909887067;3,332108731787675;0,41190298462169656;0,12208394354597449;0,6576368234974395;0,47754953129201977;0,051900504062225156;19,829762684171186;3,121627041955717;1,451889347770825;1,090301840566189;-6,202528019189803;1,0493328226647964;-1,1264408177633156;0,10649398520191475;29,01117969659169;6,422420225426247;2,1974121799321176;0,6003890140796334;0,21485402547759413;0,6417131471415877;-0,3024638109653724;1,4277959870836237;14,348878220299227;6,089041728929589;1,0672797843986406;1,2081915130292482;-10,416080006580483;2,2694784482640706;7,553552769130336;3,7045229667845656;59,00129793560397;17,832929676049595;1,6814706739750886;0,36190925617198116;-8,151813984712724;0,2355808917718491;1,354948393476744;0,03269942550686972;51,5289726745494;2,64147335768217;1,7373548770478227;1,8727927812171445;-5,163081374079923;2,270205343586527;-1,0805864567153198;0,18091399360070307;20,418164018399654;12,395195196065135;2,5345771316623384;1,1201050997438902;-17,200683994515167;1,9736580249043625;12,236659572742063;2,0717576784793046;108,31546161611541;17,284247908007405;60,989371748424084;3,8379485225891448;47,68456878494508;4,487272647765399;-2,084692475313654;0,09809788720196887;54,673459272674904;4,342648930021725;546,1841516923738;43,47626373021342
002;001;Valoxy;Isometric;Isometric;semaxone;VM;20%;5;Dynamic_ATT4.7mm_scanner;Not_Applied;S1_D1+S1_D3+S1_D2+S1_D4;4,286674019766322;1,3468068930570418;-3,857810063839967;1,7923405805687986;-1,5994921012409518;0,8081934076113344;32,36857743446582;6,155737834847232;4,192666954899102;1,1743903601133354;0,8839164920055451;0,4701710733940088;0,3995103501190816;0,04505045953197251;25,08908442558866;7,657497877617046;3,1356490574191307;1,5200362205241627;-7,305045466267586;3,2461376358632856;-1,2146293275578652;0,2393382035452311;33,84998532505824;5,183246234141941;6,661206992213724;1,3473180544107437;-0,7554103322351643;0,6108603425515393;-4,938543466462908;2,085727624044363;40,9907885277784;6,591556981490418;-0,6976002839029818;1,522426196497308;-3,833259729647385;1,8409285734207823;-0,2457559439782341;0,29758209726076895;20,223144730873766;11,929842576267355;4,380299948552703;0,8481544742202363;1,3659285147330382;0,5647139163441516;-0,6872473667853723;1,3812607692555368;29,146679367789876;7,333944834526648;-2,2180873596364847;1,9121048593615229;-7,260099948894974;2,984022405828373;-0,38472045371128905;0,4443095282899999;48,058440438847924;20,598425916791147;3,1228534922116795;0,5443683007690405;-0,9473165639448811;0,6839355528100206;-3,8673142471857007;0,5620674670669897;13,324060536496123;3,9648863397476113;-3,355385311580386;3,161517387499944;-6,914942315130953;1,9672657254521937;0,6525229823611352;1,0544106812296778;51,311129419699014;23,912302971435228;6,431709789081919;1,5556771577965804;1,6557595221557908;0,37907685329044843;0,722418242662556;0,16364956394412486;40,63536045863383;10,242273902107973;-5,555443858732478;2,983174585033;-11,956117731357784;3,756915753047869;0,06068079468114658;1,094785586325658;91,58974141060007;34,39543952239719;2,1506572125612835;1,5139930936068546;-3,8252061351137927;1,1046563953994202;1,121752460619035;0,22090990875347333;21,281730177482203;6,93335300629485;-3,1563395070710527;3,2594834562850385;-6,9250698795172;2,219874641579731;0,7217458920833753;0,5339955880803993;54,26055479723122;22,955323535906423;5,167094360114555;1,764889411331186;0,3093623706309855;0,4183999702390559;0,5504474527649033;0,10118713684474254;26,499980955103062;9,516227038485521;-4,772048326295922;3,6206288535707367;-10,529244642412001;3,467256412838857;-0,07527418523348799;0,8607758208782322;80,3797696667039;31,949750549064817;1,1355337136193195;1,2092215179809516;-5,63306069331904;1,549894110414898;0,7047718986652349;0,09203645077618217;32,17208115682476;12,302460639130828;0,8651009194748029;0,6551822272744139;-1,8052359329506125;0,6117696731701304;-0,9038250731490495;1,0292593995125872;9,957334920308757;1,994859112148931;1,7736641478662456;0,39342363924486834;0,7985232990713841;0,3721769113713311;-0,46317327813835546;0,5463121734386617;12,658415661270965;3,836459538183878;-0,15875636688302247;0,7623742991501046;-2,864470396614526;1,094443320834574;-0,3433556886068699;0,04233080773578613;15,62384013944982;7,630576660752953;2,378538808912528;0,7195036403195613;-0,851106944908279;0,32704415415537114;-2,194923156685468;1,412349246037188;13,983805498710215;3,7658286670379026;0,15814506367781925;0,28788301573508496;-1,5045306192497043;0,734125039795724;-0,4319690830102993;0,24671593159999602;5,877211269414052;3,4395403766073813;1,26681014386786;0,44517547635804405;0,1372724560249712;0,11339227631339653;0,14984808352317178;0,030292961773244427;7,136387392017156;2,57859536145923;-0,11687666573370067;0,2684026066315764;-2,6750875914985928;1,1842857740744326;-0,3725966667302398;0,15334037813263537;11,516954501195016;6,888939974479413;0,7772300554371437;0,29788135610214994;-0,3889094689113743;0,38789817064302634;-0,8302312274280137;0,3131570986090945;4,25777005969031;1,4370907611288513;5,341538302141029;0,9363531800027356;-2,6803923167517754;1,6026767418078884;-1,7716891466275317;1,3730351572583328;33,41770477553232;5,055731207847319;1,9595333099090708;0,28401997905729875;-0,4103486609686057;0,3605310910472819;0,3052212817395224;0,03955497142539044;8,680692260071561;1,0092549907602049;5,588043157842558;1,0345820706647662;-4,379544123061184;1,8910673999798933;-1,4297118059220908;0,15363850398808107;36,95056608838324;4,141304121444256;5,6148599618260375;1,1765279779493578;-1,2120645409191158;1,4177645309274614;-3,909132631875292;2,657989403129089;33,38539208406566;8,120644204429903;66,58220177058105;1,9523809585311158;62,636675742571924;1,019788357266481;-0,2002676662073119;0,5366251411338665;64,58711397278923;1,3771877470768925;645,8339652114466;13,791625424945554
002;001;Valoxy;Isometric;Isometric;semaxone;VM;40%;5;Dynamic_ATT4.7mm_scanner;Not_Applied;S1_D1+S1_D3+S1_D2+S1_D4;0,7241767035059283;0,7505395356772325;-8,264855432572293;1,1705655105910129;-1,405654552394492;0,15722713904465516;39,57500500295877;9,81135021906804;13,328307026790549;2,4971822482099912;1,4102888690361233;1,6156097758367178;1,6896570769067991;0,174826970371896;75,00898210349469;17,126301417007014;-0,6861121655301952;1,9960345850447196;-20,461387025633435;4,048392697203666;-2,9298701524823914;0,30764293447562174;113,83503934259845;26,270866791133454;7,212752145411325;1,262901940999586;1,8111618832093312;1,7460187699972387;0,9110314907392094;1,0660469834791944;37,01609867295174;8,448018309514543;-1,681808372452851;1,1650344058669515;-11,870289356864347;0,8937407297994656;2,7783796209911347;0,336623846806129;74,31919907205045;9,576623113590534;11,565649078323109;2,1693088585536304;1,4843576260001492;1,3821120433317529;1,4513124313409904;0,17030934495753777;62,89645806547727;14,720369419390858;-4,459382107316722;1,7693861872809107;-22,580844200900327;3,625801966307415;2,8361030705126886;4,118264931782546;136,5053052077444;24,67456020029928;2,9621340745010096;0,5874977249902352;-3,3849075848495778;1,8043004212023204;1,3901595871616017;0,49149188375440217;23,035680812669675;12,096340448258733;-5,654075167432471;1,8088261889697543;-21,018380236988367;2,0100309128043077;4,280369966345569;0,9865250185485952;139,1973821710988;15,26219464266547;20,774757121074725;2,988864244927673;0,494875774956559;2,0618720226424236;2,7623374181866813;0,2859428459235117;106,31392172409751;19,177514821669753;-8,494580333650422;2,6004084961391705;-39,78045837267941;6,2691005666574;-4,528343008240381;0,4948699468243369;242,90284851664387;38,7916679239304;4,875571581822636;0,40695961131748726;-8,222114342452809;1,9159424397043137;2,3170851015894582;0,5922180363295325;59,484153788249195;11,012674511488573;-2,0519816941940285;1,8006211169534343;-21,95447629595511;1,5132580954501789;5,166406137849785;1,0037767988413577;148,92644886239273;11,459174137811397;12,833184561746213;2,5940671011380116;-1,3342658235281895;1,3489245229289135;1,9651305277379891;0,289779584807035;58,42011967874542;9,363597286873352;-6,462374949676712;2,3297714276141424;-30,859511449589718;4,609607104082666;6,045714621749101;4,176882821999431;202,09259963896108;28,248743914431586;2,6835479341138138;1,469586678100015;-14,870625049316923;1,5899058825318926;2,948808660752755;1,2815597195296542;101,61875382816515;10,022505441977877;-0,08664519144325925;0,3615906966159678;-3,400305333902092;0,43666244667641574;-0,49919922256361104;0,07663361782873536;18,100250311758334;3,158325911710485;5,201252250889074;0,777341179051514;1,2478787552428439;0,5742961186613711;0,5532538477301854;0,04919678327559424;32,7093059031123;5,724169834956118;-1,334523946686103;0,8490850934054847;-8,33966632530571;1,2454121477009237;-1,029761295591062;0,060581570156716974;50,67832891027375;8,258020859332866;2,326989339694991;0,44212793789546667;0,8175883265209057;0,49336824757304426;-0,41569639424546934;0,6175692804828931;14,781492669471614;4,364771883963024;-0,10983294270260587;0,4079624214868877;-4,732959507513135;0,5013972175009199;-0,6651700108765577;0,06135119540644377;23,030274001790247;3,8362988862262473;4,501551586551939;0,45713905115368964;0,04960553274879872;0,5310706734036038;0,601310745068879;0,02814174009928214;24,15512891895515;3,141898620462419;-0,15948705520831807;0,6938040663496914;-9,139246224870247;1,0399731745440592;-1,2464062597705388;0,09583241627164364;46,727517333788015;6,003351306716976;0,7076686537268981;0,31972522043279705;-0,5105044785513844;0,6624542917248041;0,24063069849770571;0,25831106003654586;5,246146232294545;2,793444775645284;3,0475152592137094;1,6464545744731265;-7,165014008996354;1,3280334755981917;-1,6715231120042258;0,24226622300886327;35,55909657889396;4,4258977513072635;8,530292425493975;2,035313801365614;-0,35933460586814797;0,9561711119681492;1,2698747023531414;0,3193627926578912;43,12737793075967;11,627915005374662;3,3589157091849935;2,271315787215947;-15,430270176018444;2,7469391949955027;-2,7544846512133083;0,5452307707316096;74,49054189683883;14,871320008460176;3,6942196158747413;1,7271379383056078;0,16058104216131985;2,160446242919661;0,2624576332730276;0,9876195503913785;25,818284551281238;9,94666239469558;64,39067395351063;1,860380593099641;51,8262153301871;3,9702125200818186;0,5771317984522597;2,776407485581903;58,45363922936317;2,6921416547725907;584,0244497822733;27,061406463024618
002;001;Valoxy;Isometric;Isometric;semaxone;VM;60%;5;Dynamic_ATT4.7mm_scanner;Not_Applied;S1_D1+S1_D3+S1_D2+S1_D4;2,2969633791482638;1,2232783431355285;-13,172623438387063;2,445649155333642;-2,1322462841319325;0,2506470986847809;69,46969143137765;16,268306169831256;21,071339833739717;2,1629412544175652;3,1514212878306584;2,513889629031804;2,326449733127999;0,1782989440258666;134,9529720632628;24,07101513165087;-0,8544579086823945;2,832784774610006;-33,94037692888033;2,3932240923300836;-4,509266839491573;0,34271292962324373;201,11481607108533;25,859957539779582;11,34847926591585;3,026047362596453;3,4100463649610155;3,3328538429650023;0,7125258407868411;1,3533110969571374;73,47568293047142;26,16862856665607;-2,5239730321002796;1,9060745655580913;-17,47627121560497;3,74884069636654;-2,0975403485151114;0,21766630149304164;105,54419665458818;28,31754428166728;17,928935268076337;1,5686805358516922;2,6368628331293373;2,0046106105387422;2,088785347573517;0,10102013726926973;113,87259484016916;17,753012062036888;-5,1608358652296165;2,161584449751091;-35,215005006959764;4,033883818258814;-4,184138012672277;0,32340597521139614;219,14577944821022;28,204174989385365;4,592110612857049;2,01729720930248;-1,9728335297714643;4,284083512015321;1,133200311944732;1,1071643514764797;36,089227325125314;19,380833555628563;-9,227796267558784;2,067202430667218;-29,956373256446653;3,2325977797924796;-2,8789267418036135;0,1844886764331608;209,24360752732073;27,194713445026117;29,742439536977184;3,1253098872822984;2,7362106326011584;3,0645420450603305;3,4437417989455126;0,28716529185554285;178,24427526245265;35,578213214678165;-11,964006900159944;4,083887061612915;-58,783126969238836;4,79604784368667;-6,337106645649923;0,28115237062876747;386,4070826348991;48,0574838410551;5,867287580365508;2,5128499490249294;-8,266208658781238;4,643888343831117;2,538224246765828;1,2008571325946262;55,25306305863813;34,972906213168145;-8,844541273730275;3,745193505205632;-27,03370304033657;3,5486642686872525;3,4324012663329597;2,9565272100203863;199,4729552165316;29,83846074971394;18,95792470754679;1,7530475672451373;-0,22014654826677754;2,4136378970380306;2,45549318763275;0,12214618950322911;106,14209933150771;18,99506104838036;-12,382703939856004;3,3258023284336438;-44,64626097211284;3,3455787518582194;0,9324102270274629;6,726121466142745;302,13645584432777;30,832289570171287;2,270320962628264;2,2629798056049792;-14,844707424792222;4,208434403186385;3,0205248526418793;1,4605715633145033;105,29723733983496;40,89165131475008;1,70315336495015;0,754721985740062;-3,9934500667642387;1,4810082064524999;-0,8670397232015585;0,17300641474987452;22,20053099119511;8,760124848152467;7,83371217983453;0,6071406404842091;1,8546314443732541;0,7416292306939186;0,7711017233189741;0,050614466639500505;53,51784267558007;6,774648151965177;-0,15147807942310382;0,6318641964829894;-11,661104986045938;1,2791781487937814;-1,5562797974422633;0,17085292209917158;70,43157665515324;11,33276832685504;5,337155915013507;1,6471872333497581;2,1886268876372053;1,648992451135493;0,4454648970314734;0,8083191651025884;37,42081880664379;16,330583535961345;0,7584380224338799;0,5652950343690194;-6,7529642260999365;1,0549351168682197;-1,0010287979119048;0,08210219751766612;35,942979663566305;7,916384468638706;6,24462092257829;0,40922296194841806;0,46628398115626074;0,7254056740997221;0,7552457971624496;0,025327982715248692;39,41261743212895;5,612955288174565;0,2921540412776193;0,8586824523632173;-12,939966811278603;1,077561962365151;-1,751412943961673;0,11237263667749323;74,10478001287697;9,102886429174369;1,5734561201642268;1,0884549758855495;-0,8849591791122815;1,254773234448021;-0,2434177337716413;0,5841887974929474;13,549845336656418;3,6895441824103323;6,943895635357052;2,4399714368472605;-4,9383284528054805;1,9395868358979909;-1,4899274637729747;0,5183123034616907;33,77887493598767;12,432742240898076;5,16032328965395;2,5357524275871164;-1,9615475705347152;1,1500565719427824;0,9196735410406986;0,2762305683113027;27,624883155819855;14,624197907772933;8,815997290059617;3,2829391100981526;-8,665569228886886;3,227228580233627;-2,1056985101125014;0,5326240304614303;55,25967939071281;15,194660565528185;5,530082396674329;1,7679402224505296;-2,2448721504350124;3,7473553035658584;0,32278318080693336;1,7720415175731266;38,28029860286517;15,832749805165701;61,71977629634207;1,8945774331788265;42,464488088952386;1,2921136260888166;-2,6518575191955147;0,19594846775681876;51,27147825531877;1,3848154679790972;512,0447767028919;13,985095050687775
002;002;Valoxy;Isometric;Isometric;semaxone;VL;20%;5;Dynamic_ATT4.7mm_other_session_fallback;Not_Applied;S1_D1+S1_D3+S1_D2+S1_D4;0,010943828220995312;1,3485491138956605;-3,3611429681280187;1,2149249823192037;-0,6342598177546875;0,2452343411266196;20,342520727627594;7,1153348620838495;4,57037204243075;0,7303587282122564;1,8240804932839574;0,7154117035760837;0,3617963302012604;0,06246936498156716;34,8586535382282;7,303120442046301;-2,1731364994291718;1,9491067077796684;-7,614456019807579;1,9716876250776223;-0,6273299749189787;0,17912623203071068;49,213050684311014;20,429960323258594;3,666658589280453;0,9718314814322916;0,7966049633047249;0,655861867329159;-0,5298597456671607;0,8520698667591456;21,039018374015484;8,489153100337989;-1,3039513376567144;1,0480522193438118;-3,415393304452094;1,288621625541991;-0,5238351112417573;0,4995896913056562;23,95141115663884;11,798651216098039;4,782317558723227;0,824025707376952;0,5671643144693638;0,8037320070273586;0,5174863583765537;0,07602345894279368;29,404515980527616;8,76043563197205;-2,802507539181506;1,9113533967610512;-7,726086252801521;2,0811144957742163;-0,5676932803525931;0,09214231703450718;52,940085613509964;20,717341661173695;3,0600857318462884;0,5922270321781165;-1,7163836144950602;0,7405202479807945;0,7771259480077722;0,13872507367451367;11,85645101993681;3,365597303735635;-0,21439585182463938;0,7906612360355659;-3,5214592779320277;1,2401936821880386;-0,5323038502159999;0,6111595742049477;17,925716407342406;9,302214357605825;5,188010563768033;0,7247527146936454;1,2534879417696108;1,0089936391180434;0,4988438219840169;0,050512009571586906;36,93296538445209;8,684158420172622;-2,351292591751189;0,9384577673158911;-8,428903994103731;1,963025161317636;-0,795438047695026;0,10761813128808008;53,90555905795327;18,17223615448169;3,9212368862626095;0,8472034899010001;-0,22998438799714904;1,4263994735286012;-0,10478728570470816;1,113319536323249;21,145603083466987;5,257037055819253;1,4730045660182696;1,4859043919317039;-4,541434430362218;1,6293062984533975;-0,9419074904841299;0,17443814676286676;25,251439681256123;7,321731159428009;6,6180924689702945;0,9146159200979745;2,7497196751374604;0,561272400088944;0,5492344797868258;0,09863098783251441;51,046615214278845;8,339577497026042;-1,8087601241560314;1,579436912783726;-10,780155342870732;2,5883084829920753;-1,2009970058168276;0,13038135354496022;61,55783584381512;25,134374290272195;6,553871044346027;1,5598322106490898;1,6441211876976396;0,8791397006013142;-1,716712243156549;0,49254396133340267;40,8870085439834;11,15493258283841;1,3629589531419017;0,5999730886798548;-1,6653208538049014;0,29741649710409035;-0,37692063438253587;0,03783397380876756;10,23887577172142;2,091544563833477;1,3472335452830042;0,15965286557761887;0,43534108518507786;0,08929165636625845;0,1124287246701489;0,021818232206905944;9,744673305039527;1,0027314787312316;0,9056158534981609;0,6502513196984213;-2,9995362856054473;0,3815931882154347;-0,4744599639440133;0,042995473124389026;14,579430282973258;2,8054418411465973;1,83275404031134;0,551736223887971;-0,34041708512846586;0,299527882399181;-0,2803449114213372;0,045241778349974685;10,11448625655327;3,0537826950013884;0,41162420371562014;0,7952035654281611;-1,2555911133438868;0,3680818848076312;-0,005135255621749118;0,2326153360557326;7,646950586719865;1,9909010579944335;1,488664476526078;0,21546196323331915;0,003930864296144721;0,34921497424028397;0,18133598146110616;0,018775758320371965;9,662200050684438;2,084288197837967;-0,19641579810679022;0,7014532983737254;-2,418794293315242;0,87202417528161;0,14777159983507684;0,825383616698551;13,51755944703181;6,146311864162363;1,4878261082482411;0,6950693559714202;-0,5245846169203107;0,9248549041778438;0,1265401059149199;0,35134226076707115;8,322624026865798;3,823976780640402;8,22152966584656;1,741692835565304;-1,4333810475179563;2,5522212928127264;-1,5046342033594176;0,28782994663045364;54,32859094313977;8,501267868766341;2,826081896579455;0,6443841116343528;0,9268417981045267;0,9613143987141081;0,03037227005990143;0,3504707282955998;19,60242544977469;8,49081078861321;6,315497946875506;1,838029201673925;-3,1912264570176827;2,137009535062794;-1,4579709690018192;0,27941530419285276;44,31244155194485;8,390270758164881;10,243985967602464;2,1651602771814202;0,28278646492227094;3,037891481356515;-1,517063121624706;0,36447533015042466;69,30029229208249;16,878262983090128;72,00776648725481;1,6940145595279945;67,04896097028306;1,0973258093054947;-0,6210612528133801;0,06682839931753531;69,25410893200808;1,6443975090748162;692,4925411014975;16,491848249610214
002;002;Valoxy;Isometric;Isometric;semaxone;VL;40%;5;Dynamic_ATT4.7mm_other_session_fallback;Not_Applied;S1_D1+S1_D3+S1_D2+S1_D4;-1,9229650687651714;0,844255041788408;-7,243871227498969;0,6492124216661505;-0,9664571398420764;0,1540764800966439;52,35519532294129;11,686309072458146;9,62282361063668;0,7962655544952387;4,3062024341713085;1,5004034001775348;0,9542333531773617;0,1433323640416369;79,11274788498685;11,80865144727606;-6,22916750293648;2,304492349842081;-16,43551314240143;1,2927738967966864;-1,8156597971466677;0,36143082995065884;131,46794320792816;23,19879411948926;4,834918879804229;0,9201901327035072;1,45173554604222;0,37128723607738373;-0,3165886692427034;4,244080835917793;26,757552562045554;3,720764556122282;-3,8459066600985183;1,278319019657667;-8,854703877364171;1,267308270537051;-0,9760724419848863;0,11430618208326229;64,33026034969038;13,96490006544064;9,366864026809;0,9878909864867322;2,5486106886927162;1,7755861600702887;0,9588131595464329;0,09075625037350164;70,16566880011214;13,025681648258377;-6,394517348791235;2,9859383089365084;-16,8493009175927;2,1090121270322655;-1,714009037938919;0,39385748506134033;134,24605120537765;26,56920609095973;3,8476330175465505;1,4670062707075275;-1,675495729562872;0,8545269027888145;1,536943488524581;0,3676585272709134;16,770146745997135;4,722790169751166;-4,6668026390988295;1,8988342976515689;-8,454549853390919;1,2705045276274542;-0,8391154892548593;0,29984029691065556;67,8450517962807;16,32076813816412;11,147409449070178;0,57176147322052;2,8173389697375644;1,4036015531299875;1,260688343106359;0,13964950994249167;84,4820585768741;10,048200491604069;-7,9697122728983585;2,2413166449123367;-18,64008379228958;1,0201710467663154;-1,5601082421614505;0,20832971272959822;152,3271103731548;25,144700671648305;5,097407808715282;2,073674672468669;-2,3657870797030194;1,083259120104715;1,367871885128676;0,35624393986201447;22,335462584942455;9,341677661545841;-3,869524169226474;1,5949716978065709;-10,196867281607087;1,452523920637582;-1,0991957522231401;0,29631839068640836;77,46872329158728;20,10534414295237;14,574241262828608;1,410876226040351;6,744562704158635;2,211838211734965;1,5530473031916574;0,15180512928137865;118,13956635120545;16,157657847105735;-10,87227580241979;3,2498721353674616;-23,905384868097013;2,4191979581715573;-2,426895985070974;0,5010712707040752;195,6082896427927;35,83175452532326;8,05411669891084;2,1095338827636483;1,5990018560461454;0,7501867164596426;-1,4440714089907662;1,7393171564822054;40,67084305961816;6,831903692115976;3,284626900510027;0,4963550930608282;-1,741206438951476;0,3262160704155009;-0,605894543886236;0,06721735704622994;19,884537352757583;1,3602854319702735;2,4516398661875973;0,20015137887382273;0,9020569747021611;0,3404902677494097;0,20518730617408365;0,035271891485780915;18,96146452756924;2,9753537834811348;2,316311849644695;0,8466127949218049;-4,16172257896981;0,4544665915637402;-0,7794970257138116;0,08476091617615082;22,61780483746123;1,9721805063531492;4,52244202296766;0,27019629367766257;0,6602060363136324;0,2701127918822183;-0,7851502511255501;0,2555706587724485;27,876778356658587;2,039654650384356;-0,655262794708956;1,1108208931037542;-2,489172031999621;0,5235369404417672;0,7360561473254339;0,7958333240844911;18,933276223613646;5,886910817644107;3,292331670052863;0,12485062346447112;0,5776797014775552;0,3167120851711549;0,3724082721911325;0,055932148842555714;23,558893723097945;1,729820825989624;-2,6002468656224305;0,5055820958362054;-5,444278897995642;0,7178788559443331;-0,04415188563214315;0,6250729916021831;42,00709960987719;7,424550557593588;2,431485050521909;0,9731674729987821;-1,494611619227299;0,5408705321992434;0,6414259660254868;0,09249084050879129;10,312400507383837;3,7446765228372803;11,246288156812252;2,211664672940409;-3,6802721908558227;1,9807266493020919;-5,039791005644796;5,191473689441608;63,95869438744853;10,022128369257164;6,936585996415718;1,4318090588423604;1,3010275882884283;1,172121512375334;0,9534548354135985;0,23710944792603333;42,06943784785843;6,349338758142685;8,205958971219449;2,4115911870042392;-9,513238193992109;3,309379531154933;-2,4984066351225973;1,1410951617565817;56,445952102221234;12,021933517917;15,171729209089662;1,9134970097485609;1,962682751051083;2,4685427511692586;-3,1518865111809955;2,0562969528612274;96,13868717143559;19,124255579174864;63,23515651879732;2,8244206870668127;54,11654171376608;1,7280373353436702;-1,6323331172890434;0,24205683275918943;57,15803285749439;2,279546438714261;571,3352019939891;22,855316437201438
002;002;Valoxy;Isometric;Isometric;semaxone;VL;60%;5;Dynamic_ATT4.7mm_other_session_fallback;Not_Applied;S1_D1+S1_D3+S1_D2+S1_D4;-1,7397827046747711;1,3982099033707025;-24,144807394369074;4,936427690085944;-2,9434051009133944;0,5455017903538595;112,20357092485183;10,140654294714967;14,72118350614966;0,91468977187785;6,42589157926205;2,06900518104687;1,352329994130058;0,30379487314259385;121,90238057333461;12,850962962368452;-8,165674283936822;1,5933499005624887;-38,345363677394666;5,075703929346841;-3,98526894674279;0,4414872803101732;234,0774294674311;12,370351725008687;6,475354033998286;0,683432930571067;-9,94957564947803;4,875593764856389;-0,7771197586342835;3,35005133259975;50,881026196430305;17,44190241465198;-2,038468504676319;1,2030261049720363;-21,270632862726874;4,596813278011827;-2,4122318339735918;0,4744020853785534;112,29360315564801;5,947655670805829;14,576767267266439;1,258524438529934;5,625297714222382;2,6183479919233656;1,2802811479019645;0,32961107468941936;117,26631917360464;17,557975548921362;-7,663766218898701;2,088247375410993;-34,561177646758914;4,622126341724683;-3,527562755783593;0,5049447008346534;229,5599223292527;16,62018778065435;5,6854203490828485;0,6484446923081553;-8,109307107224332;4,696898842406425;-0,9963192855527037;2,4959499224885278;47,009933582048845;15,6372535280108;-7,627005181833506;1,102156331049002;-17,491241632348636;2,445804677789924;-0,7166760334188582;2,111949086916646;131,41623180711707;10,072882785039718;16,085944610784196;1,3281265366629411;4,493707444345911;2,112605944303405;1,5278722739576753;0,27345155401041477;121,83512464112808;17,60495687515057;-12,157224394087757;2,4785125418259626;-31,011263722388964;2,471619888233972;-3,2499000020417683;0,5821628926097647;253,25135644824513;17,767292187512318;5,075808426654442;1,004041090389648;-4,673337939458884;2,97179347285175;2,2824011488308873;1,1271125239239916;36,567679587312796;15,195788478722857;-7,698535521490237;1,5329905502471;-20,721910379159425;2,7013803483718855;-2,478147004232059;0,4695832161801364;153,83378348966824;11,178813689455318;22,657676986813428;1,4489168294116244;9,694351935445013;3,3213819544571397;2,0154383295086307;0,405667664872799;184,31837687280583;22,378925473797164;-17,39288745693525;4,141072841423107;-42,22869586872956;2,7175900483913304;-4,291839057813091;0,7909171940440193;338,1521603624741;23,896085055915;7,4018685369466315;1,2761208120708882;-0,41892120295198154;3,1794227452974613;1,1672759010665776;2,4209817683441615;43,95667852333653;13,02395182128039;6,762672675685108;2,243214706402769;-1,1539237852106345;1,4384864397332597;-0,9226173189232668;0,2015879605499762;35,66920737094411;15,767879066862026;4,772932660557102;0,8542012446274408;0,7738270490592453;0,48764335853570456;0,45755137290388437;0,06472626100069297;32,3988509922892;7,1779744238371395;5,9817655674530785;2,6005781303796387;-5,684933162577881;2,1352491329019316;-1,364470190491975;0,27071162636345897;38,751217972734665;9,65578377501389;7,974773868633257;1,8327684353239608;3,2299846824855662;1,0999789016183372;-0,6451550076504603;0,06469632221062131;62,12979479022236;16,23593292487122;-2,3355980934984646;0,9894430267590044;-7,663257642303061;2,31415089219423;0,14277184506559232;1,1184031730017003;48,89779086498614;14,036095311526783;6,541950833024851;0,9667731577918566;0,7825639793013888;0,45850823012931835;0,701273217877504;0,06739251499082877;42,95535169339699;8,780390305157665;-3,5906094131319994;1,5020510070992537;-13,074315356766192;2,8328237017301188;-1,3223599441881546;0,4535035693896846;91,85314255838313;18,001131924768536;2,8564510938059087;1,0458067665455362;-3,077703756078683;1,7661710342174257;1,2204919572517254;0,5015389886622406;22,65392070241882;4,877026932073076;14,824314523182613;3,2221461624672756;-32,745379684372274;22,819674920013043;-6,166173294560354;2,9039536585477537;145,86700418408867;64,95551826591254;20,707037785057402;8,159928972471468;2,5068980340329565;0,737111592847904;2,248732574618585;0,9524946286338465;98,07847270891666;28,07401796516557;12,262094103808277;2,695426229029354;-53,264331326557624;30,925074659075424;-8,287092619933421;3,9343684784174395;168,68438226998236;81,90679617169101;19,002013671596345;4,727390742903292;-12,308973444460438;14,854557306727829;-19,42144840054606;12,597131066193429;147,77904768550883;34,518834191836206;62,239723152857;5,107882360916414;46,90683275475254;1,5122196640799515;-2,345142737721182;0,7824153970313444;52,209479771025954;2,843045253028613;521,5343480373638;28,360739723914765
003;001;Valoxy;Isometric;Isometric;semaxone;VL;20%;5;Dynamic_ATT5.6mm_scanner;Not_Applied;S1_D1+S1_D3+S1_D2+S1_D4;1,169553323264267;0,823003538755267;-3,298987645674135;0,5092912150329043;1,6485060824075748;1,0702272001695907;19,03838207351695;2,966508189412596;6,164316756058172;0,12304504139071377;1,1704989088895907;0,31025701348643764;-1,4493679491366824;0,4114632834561263;43,54977019673475;0,7872782796519772;-1,1365435797612162;0,9670549116880761;-9,165454969590972;0,5225310917365582;3,181275391419727;2,630864105063495;60,72300037378843;2,6514676308213327;4,628457953068681;0,400070411830342;0,3531509439140336;0,5964868663051592;-2,6382580512229814;1,6994161922111202;26,515111726621814;2,8106871038333847;0,21982643042928837;1,0265347810092937;-53,75964410800002;3,823444783640379;17,85895490084378;13,216064862698369;335,8747414021688;42,91827422550143;13,27732781856875;0,8701231512438199;-0,13034694443752062;0,19721257684382693;-6,18517811167593;3,646347191524318;80,21211362561458;11,63107668621531;0,2887219388490926;0,9153091931841546;-66,89424024921509;4,4576317866346;22,431381086103077;16,618697080043766;415,8973899517972;53,936300553673156;0,28445928106683466;1,1010023351968221;-40,62504796678495;3,199142342839502;8,471493180761245;1,537498944431279;256,2879716849018;32,032713385532496;0,16250335252602036;1,1387900393780728;-69,23110728129828;4,760653798461853;37,34507311496585;18,637429844920835;472,48083926338006;52,08022465227354;3,4124539620636227;0,8624035929230004;-1,3599781363366552;1,7032117623493181;0,5033894641644832;2,2425337825932297;18,046536014095732;8,65811200084232;-1,2817258295369252;1,3040545475621668;-68,77199679796999;2,2500271508727883;37,846608182041216;19,485270992100453;485,582135811988;42,25438851170251;1,6357863258282848;1,074518314982814;-69,82601650432818;7,441355707497479;36,780537266868315;17,254499090955623;461,7015269093055;61,50979229365345;0,8982470295495455;1,005485520610036;-60,28586479234739;2,5765032085159167;32,02064617823479;13,828346379796733;427,4721545350882;31,171406470777004;7,088515155269683;0,6178534003396063;0,5218179539435168;0,3475523265506798;-1,908460168678523;2,163593107582858;48,81959208759895;7,039094464185209;0,27524677937906505;1,2569595031082759;-65,39505275733411;1,6377819806899117;35,57038223277314;16,71609438629234;475,91879629343975;27,102921018094115;1,5727104191906487;0,7843184113384093;-55,205980595307054;3,6220779203816145;30,423376540245876;12,953822065868115;380,123975543439;35,27192689549102;-0,9593409054809742;0,5769204329117515;-3,598106154597211;0,42247194492317686;0,6011769255107019;0,5852279535848438;23,768280641159926;4,432531526028434;2,4998805641374964;0,24372254218136424;0,768428630868896;0,2798856787624767;-0,2868964601942018;0,1532847097224579;19,628304167146464;2,054780378299644;-1,7301097120224533;0,809283556674553;-5,921129871666439;0,4633941901376214;0,8940348148897141;0,7705911471867585;43,39658480830639;6,299716957743808;0,3499263664532927;0,2870266259447993;-1,4278034961435833;0,45071675270580214;0,5805984730328201;0,5995337940065169;5,399104270610729;1,9891169224592467;-1,2136881568995868;0,9906281181321508;-14,022696856734068;2,962396902077306;2,555720274064581;1,1579975630261587;88,50698760483262;21,76591775022498;1,6848084918393602;0,26516375683134313;0,1425452622609586;0,4619053788112471;0,4329830229804312;0,8736832752378819;8,499266910253628;2,7391540975432336;-2,160381108162268;1,203216865345856;-14,230619595728735;2,6217228801726855;2,4015765877341564;1,077155833109047;96,65495729573318;19,88042074052549;-0,2669184778885397;0,8558251978175923;-13,819408011715158;3,3437760584557137;2,7069939135990713;1,2542863294169806;80,59917963129116;23,83320829421939;-0,5669701202597325;1,7400611934906955;-56,85866614103794;0,8794567006582401;25,9199013492108;16,69803113494324;425,1542548702544;28,367944438091513;11,648493832927945;0,9404163017492948;-0,5090603741908059;0,13039363349306898;-11,794289588437156;1,625045111935818;64,28246410284696;7,779593718195024;-0,08359640326128029;1,8182604936348281;-66,3502686222068;0,6295653091626431;53,91946751714045;10,296467633352172;489,27577807991076;28,601768513275104;-0,896175041637993;1,6207693519209159;-50,15717612141322;1,8038948777741215;9,082512636586753;2,865301412143686;361,08541236729576;30,20238634798847;81,29102772146746;0,44866395013152566;40,22784821555406;2,5294808226088707;16,355480844893552;9,654405425061244;55,917687194147746;3,2161627084076465;557,9984007005211;32,263844470747884
003;001;Valoxy;Isometric;Isometric;semaxone;VL;40%;5;Dynamic_ATT5.6mm_scanner;Not_Applied;S1_D1+S1_D3+S1_D2+S1_D4;-2,630589915054064;2,181006969955117;-13,562109285629461;1,5012365215309709;2,9823149041343755;0,3956544818544466;88,7057972327777;13,080789431090409;12,259229249466577;0,6269899972376087;4,7394228303801675;1,1879306381075445;-3,1416631814808254;1,1064239781697038;87,80257433482282;6,281517235357021;-7,3747856508734895;3,2976769424512464;-25,495898452262754;2,034309214637932;5,3504794702766425;0,4843056719217302;176,32458941316503;17,73610384936554;2,584308817084763;0,9620020299739251;-2,254388856170025;1,6202944815704758;0,8525552332830083;0,6948376091442768;13,972189576938655;5,744035083359767;9,370804561632243;22,140795137435898;-79,21817216563218;20,13281218559324;37,338931100738485;24,199602354129496;577,3505910715837;97,51894400609032;17,836299304586564;4,517897384043519;0,4235539832765869;4,131984868503122;-8,065381245204751;4,492000993016488;121,72326093540764;34,50053507823789;8,925109531533494;26,269622471800762;-95,72329376293743;24,908363971383242;59,89905851659957;28,373542182837696;699,0233905167893;127,9958744816674;9,92302060493565;18,14495540173243;-63,9129338294101;14,564499262422219;43,3176335248217;20,317794742625498;456,3221461240067;71,29608540221884;8,144687469695317;22,26550091944514;-78,1980956599416;21,612605716048908;30,025666988216237;22,50880827826385;585,3063957106502;116,04403705844406;8,813077775321421;2,2986716919148114;-6,068145539519575;2,388034841396211;6,182200360810214;4,6281612820391285;49,53309559271453;13,810921228501178;1,9563826628591012;20,55572883618761;-73,36092124469128;21,35712037981922;32,550128102009964;19,570151285784696;563,0136086011477;130,4714288288679;15,785578548386374;23,59249807649662;-83,7961409885798;22,57088076494199;43,84229360469207;21,61218201955525;612,4520029497165;105,48328708084539;7,276987825487913;18,393572522139873;-63,08388147736478;17,509766354878476;31,24528430226606;17,7966718506059;467,98661520509614;92,0010478478218;8,200993077217163;1,1993122874226914;-0,4119781312330966;2,8929760498491808;2,7497396836787544;4,346786489090836;46,44687705598863;26,322555266328088;4,071850703661132;19,339324837341046;-67,69335321440568;19,089711539167965;32,97545996947035;18,849317620517205;505,4203627467608;113,42184232012062;11,912036473709666;17,02812749993341;-60,65608647596889;16,50206505524783;45,81192743205933;19,522870762366818;434,58418785239166;83,67152499631814;-2,1959121749793673;1,405123813022253;-4,686764707250039;0,7230130744223352;0,750666008338408;0,2326786336091315;36,92773776251882;8,664692613679044;4,978033574306276;0,7042776570424355;1,5271842662738742;0,9582721406539765;-0,8871153155397256;0,12862569002015356;38,483136933654635;7,0215004020531975;-3,7260555640245;2,3576815433892198;-9,63139378819695;1,4574110463750747;1,5464401708659001;0,3523547694720536;75,40953178691896;15,563709556835928;0,7510273151932351;0,26646875440421613;-0,9249548535962073;0,30364452816278087;-0,3151317215827816;0,06845047120725883;5,492763872009587;1,3086576057782082;0,5852790555154208;6,066789435319739;-26,818607176988877;6,576202900296563;5,282950146379524;1,739196139552922;175,54681761704535;37,24960882341474;3,74575892679278;1,3963046662620282;-2,721778585328175;2,406486788882089;3,084627587476091;2,7802931560406603;21,20522160314238;11,671935046428823;-1,617321093831599;5,9938537506946;-24,221437432549713;5,107267226607697;4,312876640837774;1,237798850478377;169,00141761844048;38,640394647652876;2,826577066617156;6,318688711787515;-29,465869290316398;8,527288011690214;6,569686198884577;2,0590234297860937;182,29449805759182;41,438864954102996;7,951410781893664;16,98496427264134;-58,79556162313817;16,645871552227803;57,14670340402613;18,791160989719117;433,7489951275558;86,98295297598989;8,245211375698343;1,4396083485067228;-7,946606862886215;7,219062815897553;6,3139430970580515;11,391059631397075;58,58196723024575;17,000110662412173;6,880511820088292;16,94962780955299;-60,715339156806465;16,71100667371657;59,66830220571212;19,254061392878324;418,3572552970994;106,074076143388;9,192992392689868;17,10709420491441;-63,15009243785296;17,213642604218826;37,917850089532415;16,136041458798367;449,583818197125;95,45158832614364;79,72096790941569;0,9101492729706995;22,444549749931337;1,9014373351714196;19,206784574669054;1,7092788991416377;41,338876046535155;2,050580827496434;412,1210390208597;20,492101061480497
003;001;Valoxy;Isometric;Isometric;semaxone;VL;60%;5;Dynamic_ATT5.6mm_scanner;Not_Applied;S1_D1+S1_D3+S1_D2+S1_D4;-9,199623191690197;1,7926783773734876;-24,234096820168674;1,4717455962700121;3,8181082797907293;0,5620509562137554;180,5309111694584;14,043292550564855;18,176516294961072;0,5410398403708445;9,391858261078188;1,1874201735839962;-1,587237836996226;1,5462920274377017;143,1440470928223;7,7738757363198925;-18,668362230942762;1,500577693783272;-41,84698907240712;1,9152783563873734;4,277190187247261;3,6105643880448683;323,6749582622807;21,484258293652847;2,2846057488638567;0,8659595446395074;-7,494646331895781;0,7926557304688623;2,1610385734049946;0,6409857719601307;46,35993932681802;4,9840700356709835;-5,0164612971679485;0,8922523261195885;-89,04857970432386;2,3555701653231544;79,48081013561507;4,69378269273559;624,0514031282045;46,079193746994875;16,290307796555926;1,5033485501890547;6,074558941541534;0,7986007705621901;-0,8418107496597363;2,499968495837615;89,09218409217418;14,98180367287211;-12,168365685979776;1,471429287859351;-102,39920944646452;3,283287423304275;51,4572950842779;32,0920253597477;713,1435872203785;48,369840514455696;2,4739485779046273;0,3887752841144188;-79,4247546794367;2,99205407088189;27,77486437555974;24,527053300788168;538,0956222483388;46,854119967020665;-8,101306415067198;1,140470982206218;-96,4194861703855;1,9598243291925843;42,767255397503526;22,219690056294088;699,0998017778402;30,194259384452685;13,028952476579372;0,821896365991518;-17,00280854233314;0,6881810205984149;6,348817423469359;2,0907174204605123;136,4272840519635;10,826841270270895;-18,437600553925904;2,4485143486294985;-83,62864733607962;2,692374687450542;25,531101583211786;13,117621247927886;627,4622636954862;21,32837564503031;4,219538650208605;0,712745278218312;-111,88884413585713;0,8894081660057012;40,15146390479854;29,218175696605236;778,9474759738098;39,01276416940647;-6,659979627316568;1,4394692694874354;-76,46525721117789;1,6185368598968424;10,814035232669491;4,152238957708586;557,8706788966518;38,82208232911837;11,49702758072519;0,9515662448149816;-7,787387865545173;1,229834711101894;2,8913317831664527;0,3021073388597976;70,80791583840112;8,525162245614974;-14,843129548498297;2,938237812787994;-73,38095069917503;2,072796081755291;24,650118571578297;14,997945694776769;544,131368784823;35,19272772880473;2,824177804110254;0,7844661416171914;-84,19588101350014;1,8547036689318237;16,54104700005123;5,879323152156516;577,3844665355266;42,28197376901081;-2,496481830325994;1,535324871543455;-4,305415775728392;1,688626717899982;0,16400337771737994;0,39615831080637576;33,33847556437074;16,040340925416793;7,108254894703312;0,6350200482593766;3,4517551393563863;0,7106854860863033;-0,9823474135264816;0,07852010061398043;57,19255229134658;5,088055194776066;-6,38802749914384;2,2718674505109666;-11,267547611162865;2,3935760373336614;0,7013410511746608;0,7861798353308936;90,53102785571733;21,09931591495651;3,6348258338719375;1,209431364349311;0,10380400414132893;1,1706549029856979;-0,9561450134310487;0,32370907675278626;24,877218084429966;9,843397521889905;-2,7272558357454573;1,94413467008741;-49,49850582975362;3,4021800227691243;12,43210906282802;10,52023106583404;358,8001454393242;41,35387707476256;16,35536950511559;2,430837614622847;-14,188576181336396;0,7347694179592301;7,102082713988969;2,711747707264402;104,4647928010323;9,188500288640618;-6,583528544683996;3,1542506794472187;-58,85078135918066;8,378692028925263;39,633151833257216;10,174105866753;297,58297891477315;41,2547289983886;1,1667037718180437;0,9882256881768885;-63,01389008671781;3,2479296825107715;11,607998950305497;3,133825701786446;423,3864642382743;40,57623121676227;1,4276556428573168;1,0824086806414874;-66,82341624554405;1,4095804095158626;32,06740795297695;26,32132729052241;469,7982025606073;29,5357453136106;7,187225549779926;1,4004160822248737;-23,0979396228803;1,8553544531671988;5,428982204833872;1,8087620461774017;151,0659840505098;19,885736247700386;-0,24256199929384206;1,4306882281882447;-58,334257977346944;1,285865508403647;64,54632886450342;1,9901492641771763;334,4326744009358;14,87359502101845;3,4579478327820867;0,6427141997954854;-89,5835476650115;3,0687459884758908;13,30410560951817;0,8465610703428026;609,1206246453542;46,607227759452186;75,99765656078924;1,4310194063115607;32,76308663705305;2,016536901247326;78,97432977534866;12,459071050361304;49,65012256300656;1,0018489631673633;495,7832594325687;10,055591009742756
003;002;Valoxy;Isometric;Isometric;semaxone;VM;20%;5;Dynamic_ATT5.6mm_other_session_fallback;Not_Applied;S1_D1+S1_D3+S1_D2+S1_D4;0,32848606325114527;2,4081440248203365;-12,268921503706888;2,9914354844562046;2,5301826962906713;0,8859032714784199;83,6100156747405;22,296597687889427;1,2784130142314445;0,15934538142036647;-0,0037936331269863175;0,2906311041439286;-0,31441665041346756;0,7824542053960822;6,970888099429322;1,3258577226967974;-0,10708532707972043;2,48844284213278;-13,330109362538945;3,022671272930132;3,0777665837844124;0,97203602047959;89,67426834532816;22,78088335920414;0,808518684958587;2,407383680046022;-11,265492828713452;2,8978143273166017;2,491996559122531;0,8722580489048284;77,81928523421445;21,604659235216253;0,21879211109845115;1,43217748225195;-5,069179545564017;2,092421043534656;1,0772765301562424;1,0145043682829853;30,7568840788783;14,584148420101716;2,334450204824142;0,5655477400478985;0,6057960611591001;0,1970271185203084;-0,302825372671359;0,3152635566771783;15,410120987416168;3,3266977722108937;-0,5425377703819808;1,4257350786638971;-7,2212090795911195;2,6956802444486136;2,3546809092731484;2,8837595118106623;45,67090422983465;18,013476870508494;1,093005680546171;1,4183483369929233;-3,1458513281082277;1,4496338686509913;-3,06576496495375;3,0628793051301844;17,096343064704417;10,62538113499035;-0,49962004510847857;0,9373970065098369;-4,608131172337027;1,164858468592189;-0,6290505381325244;0,1030111734458947;17,192961784656845;9,466372961044705;2,8464166829382656;0,2413308983928297;1,3016997452497936;0,272967132917223;-0,2690891351811914;0,7657212327148593;19,738889809561652;2,307053374868352;-2,063993941291239;1,051428513118517;-6,337898899724846;1,3446273497369807;-0,5891164260645549;0,12492814064768218;36,448806395906644;10,396634198876058;1,5068480349601767;1,1157621966298081;-3,011099746100834;1,1069563084876577;-2,0869697068080746;1,4572817643336993;13,074397447970991;3,4759521495725973;-0,4391279335087289;1,328912969998485;-3,2186217741734864;1,2542773862404015;-0,8772603788600689;1,4796004893149168;14,19392212060273;11,276961104970757;1,6382960626074161;0,19502322393708105;0,039405073665991455;0,12900257745993457;0,20222007054377272;0,030426296624302084;8,065985690290983;1,9922817452271888;-0,7215125712755434;1,1431896193932451;-4,546330710457799;1,2270371021399349;-0,5598492208905739;0,11596286419063949;21,15748533466875;10,49392819018509;0,7515548118877913;1,5329521181854202;-1,8990086455867163;1,316670669259761;-1,3632805428321952;2,2605232830969118;11,81233123719494;10,33199701627113;-0,22944402883228793;1,4283741363391569;-2,9026049292018214;1,3648827933217829;0,43645513402979635;0,20189360879732646;21,71749980778953;13,2412514463821;0,2552233320639548;0,10677720117543817;-0,41970369637789473;0,06800887937279321;0,07801544973314588;0,01742474368761997;2,6114864482419695;0,5905209809560363;-0,428170144654531;1,4444819404062168;-2,609943540343612;1,3935681464155467;0,5455528987030276;0,1797391090375892;19,835897521926146;13,435469858119822;-0,016103282615202764;1,436883628668249;-3,2643381417063524;1,3228411389843389;0,36482611089830674;0,06879302576317047;23,73321786686257;12,994529201278173;1,2417085967155015;0,7318739977939575;-2,9516453520720196;0,9192350847974077;-1,8363179343298774;1,256994117191903;10,88459847211595;2,475707874437148;1,269738108169634;0,46155344117460495;0,09507609441058613;0,22463780587114027;0,7313674830549364;0,41506850732661704;4,125679143545744;1,9642603138117092;1,0587111223823702;0,9136028614396696;-4,130128776161026;1,3328521435192286;-2,273409364984672;1,5776495329350697;13,97949836689504;2,7364032836513426;1,4347563398170897;0,5708238607256366;-1,8463487061597448;0,6107634537457647;-1,521761112094931;1,0863326777636508;8,891812410594657;3,1038074448108444;0,4532315567757824;3,746645297666307;-22,947009681285586;6,551209922710286;4,756799943504835;1,7834855267507046;150,76169953686917;49,3568788222208;10,352811811469556;2,160838422221445;-0,4443574304123845;1,2134604018370796;-2,26098357545097;0,6255502128176611;68,47786505569192;15,68100507630006;0,7432148502164424;4,919331889625369;-33,16925860018118;8,628579259042416;6,268050562608037;2,543134888332687;219,02793829675556;64,84404507027483;0,20268611918518725;2,6312805581248213;-12,845439845195145;4,4730078421701815;2,2667066718537177;0,9932471052201195;82,74592202512551;34,01303150963461;75,48812178699414;0,7596015584671139;72,72779586315238;0,8397256800730954;-1,7594835358946308;6,548427767804688;74,08655974123569;0,7427357446432132;740,7957096743542;7,426072921235413
003;002;Valoxy;Isometric;Isometric;semaxone;VM;40%;5;Dynamic_ATT5.6mm_other_session_fallback;Not_Applied;S1_D1+S1_D3+S1_D2+S1_D4;0,16256032337974866;1,9104083091033859;-41,972465357502394;2,06182364887038;11,511748656376845;0,8847904062796715;275,81883691304523;33,47633857123263;4,033636370578415;0,2969775948096428;1,2591934102389462;0,5191015176162598;-0,8223439168509238;0,1307936947951497;28,378353355185858;3,0544089765845905;-1,0989926135751706;2,370571069934726;-45,658101634138546;1,8716814535276467;12,22108921789435;0,7868906336431063;303,1693243337542;37,7659322622275;1,424113260334668;1,486472605707343;-38,3340921973346;2,244202811671448;10,006197045609502;1,7510303031351162;250,45675503939697;29,512068858760387;-0,008682518144293726;0,8802431673273735;-23,424736959280942;2,6169458949842506;6,223574799493573;0,7278526759117367;147,69906141789946;21,68986178847535;8,320885866290073;1,0025676156931211;1,8577482698883059;0,3780333345386109;-1,7288415451881427;0,26973391436331695;55,36994710134426;7,855030920260505;-1,8924198032269692;1,0860564778420458;-31,68941911991996;3,6059198071334375;7,885579391483757;0,9601589703327382;202,42579479684306;29,82802254499613;1,8885603800718436;0,7761733234153303;-15,28831757987182;1,669486310476296;4,016364354147543;0,7288486211083519;98,97435892574232;12,879239649279015;-2,9472702665344643;0,9168899412567904;-9,88086591898391;0,9050882871588728;0,40440038511591603;1,614853404643851;62,49644719889775;9,438118045689722;9,206615335815105;0,7154413656441106;3,431936696059837;0,6311405528378028;-0,03320098009927426;1,1142643571571342;60,77093578631691;5,343530309939437;-6,5497070402498085;1,1700616258907213;-18,079440077494375;1,2800631289554536;0,07076785090603788;2,236515332516047;123,26738298521465;12,611159613593413;1,011949742744274;1,1192743916002885;-3,4740067537385486;0,7205206458441565;-0,8293138326056108;2,462556042496612;11,478580368500053;4,263957729314498;-3,4182912410064232;1,4344131932002828;-10,968803836862342;0,6584678750325685;2,037544768053634;0,2603751351450677;73,26668101092521;7,446768840579282;5,7963661232662265;0,6071070710937972;1,3119798081888514;0,541889976191232;0,33565316007646145;0,6379585521984608;35,906087524228454;4,352810180558007;-5,908483091078667;1,5255194894195512;-16,23993905261696;1,290362221874721;2,0241842158106893;1,659853246534527;109,17276853515364;8,36142262702671;-0,0469451237777478;0,8861404450547578;-5,9581115867517935;0,5792028950324032;2,1940211883051726;2,3151698111611636;38,011156549468;8,543103370237219;-1,1280341859809018;0,7907394729898563;-8,403652631556525;0,7592633576871218;2,042549076978883;0,1738566396065541;55,540082928300365;8,245134172494751;1,8060816320494957;0,824277046961468;-0,5010591286010009;0,20720456160497483;0,3249903662607648;0,09721626527062982;7,3074272706519805;2,3453216641353767;-1,8708503982078786;1,0467670072271575;-9,341505000611685;1,452360049959499;2,0758793390507213;0,3585293975069624;59,8661172631094;10,046029064258436;-0,3462865818248911;0,5970713366219159;-7,807868307325528;0,2812903312094718;1,7405131669923903;1,128378163437883;51,2739370320499;7,9564816094048885;1,5861829234823592;0,7184658509882389;-4,781680735774485;0,6593133590465189;-0,9398375846877489;0,15712690072597238;16,636344432690784;2,1989083987542295;3,0692052050107796;0,5461328071100836;0,7256051834118102;0,32918016195912003;0,30736866464071255;0,06767185151149811;17,428537654606586;3,4690887809188724;0,8054527006823612;0,9582297793796479;-7,780309185489429;1,1646724076676696;-1,2618568074785266;0,23862601494693772;26,687951589336098;6,553480397026604;2,459927723041937;0,49267207643567057;-1,842151970210637;0,35423620731088007;-1,3766189343426127;0,671892055210551;16,70701375461829;3,1278297243562103;-0,8754878362817659;1,993802085728179;-107,18716965117396;4,941413691539407;28,832240852888752;1,6870360677001988;693,2519965842539;78,0563971165691;35,725224248077396;1,2621266617442168;1,94934805743504;0,9605653435654439;-9,140318764796863;1,0618802318883998;234,61466257748074;27,426567973664227;-2,9007447955300374;2,449775459323741;-142,80765337083048;6,071237623207496;38,274381698932444;2,8080737826251796;927,3401349342705;106,15822535533928;1,1874992075748942;1,824666339768021;-71,63292870628635;3,7964464071831263;20,035056410472684;0,9211487842471411;461,77992580109895;49,53418414963813;71,94402322413147;1,2120909488761196;60,08866406708379;2,715916224319496;3,3180844873096857;0,5228858254166356;65,34737430257104;2,2522996352140443;653,1444939809564;22,59574583888361
003;002;Valoxy;Isometric;Isometric;semaxone;VM;60%;5;Dynamic_ATT5.6mm_other_session_fallback;Not_Applied;S1_D1+S1_D3+S1_D2+S1_D4;-2,699236368058249;3,305840362384261;-48,8107424864125;2,496804630034266;12,769973435384305;1,1578017996913943;340,2496824669184;41,229334040151365;5,525187004173949;1,196610269523026;-1,059646346266786;1,0085831018467055;0,8340044958409912;0,7625016795011831;21,307079259037142;2,1619752035723594;-6,612923943288257;4,974142356307996;-48,98067707100502;1,8915274631208034;10,95090203465535;0,5807618018397976;354,61345226759016;42,0008123881996;1,2659283401025052;1,8210021570088637;-48,720362749788514;3,1792379700932405;13,818209786002289;1,6876696401629547;327,24231168510977;39,44841451777568;-1,926154368185297;2,960138645999988;-32,7115530215505;4,111342727385164;8,394663978545186;1,1388558374114837;222,8155421133706;40,12715102823407;11,442493335024247;1,7587633266795661;4,033486539288151;1,9165747032745861;-2,1288013964022103;0,32458782529341834;80,55139050228071;17,254881478766855;-6,012177211566004;4,813913098844258;-43,444441153119;5,5479087859555225;9,338517718878734;0,8484157943106062;301,77116538757457;60,34519403798984;2,3948300772882383;1,1617557329910972;-22,002693962243654;2,709698420090518;6,4418505726267625;1,199494502631863;148,07031365750709;21,441422634874133;-6,559994551763768;1,1565042953209306;-16,406506041689575;1,8207207721206353;-1,6136953176388538;0,3405343373368246;118,75920407867136;12,089429498260257;16,680102090211207;2,9669054606332583;6,546484901899156;0,9710129016150603;0,8172531364425055;1,6187831561830859;113,49432098846778;21,756337123988637;-13,142398375859097;2,022836796385798;-33,028123344630856;4,273049672206596;-3,2809872756317127;0,3991428767515263;232,25352506713915;30,516746193685243;1,6885606650092264;1,808169535641534;-3,2895184957026564;2,0524383766103687;-0,8542132051366563;2,210624419493837;18,43593125354015;5,33683014521638;-6,628879686475228;1,1856440348862098;-23,906903977868872;2,615155613085674;4,49419229496408;0,9081855223240725;160,5005689916312;19,7477250997484;11,840966864844193;2,684809639677291;4,376946076921897;1,3301608904244944;0,5968177241627686;1,2020009161009557;81,43492727280932;20,18233249100232;-11,960752848350086;1,559351061998836;-35,6892538780195;5,060592726306793;6,089199688412114;1,3652873685540128;241,93549626444056;37,83103849094101;-0,8220558039946212;2,175476213531119;-12,386813556179217;1,3096282086672633;2,5740405712935845;0,8816152645290646;81,81525871662213;9,699147665603357;-2,955210908066895;1,009729100580559;-16,639006941170116;3,067108555367506;3,920810497729088;0,798650289982113;109,09867772120715;22,30635396623167;4,9057619806002695;1,9215840988129658;-0,17921075618502916;0,40200892048121745;0,7551314670023668;0,2518293507120602;26,260782779524515;11,560292727584766;-5,313372340803325;1,9397955390763322;-20,974152601392777;4,955148139698812;4,3480189805009495;0,9877631303644706;134,5612119307155;33,99516086700151;-0,38516947290823983;0,9288762765688472;-12,761457286526166;1,4352658331750061;2,5500420632852974;1,1280382006911684;84,26813214904328;12,187254007242498;3,2969945828537623;0,5292468952693908;-6,402299284590484;0,9365652970930439;-1,4922236702488916;0,24331752468610732;27,45702331472637;2,8137537833110136;4,898445337968567;0,9273061931500716;0,667104890662845;0,21365229218155377;0,5936310520294914;0,11626477899631799;31,147812305311003;6,769181683641284;2,527171979802806;0,683175790316324;-11,268854620811162;1,6650137003680363;-1,9161005889549703;0,23389149553131264;44,970373067856016;9,337636423602953;4,8122716327849435;1,0200575079031642;-1,5446698503999365;0,8694021299432457;-3,1753739693041103;1,8832709262424807;30,36572685986682;6,865161035269677;-6,997750639128121;7,543692795610386;-127,67902415254962;5,286464052661025;31,97849009365965;3,3729333325689295;890,5762277370566;98,58632848620206;40,0703747177372;2,6133294097650803;7,647813724001078;5,2041190658719385;-9,148162943065355;0,5940652818665009;272,0455789802203;34,655496600469476;-14,77369073221433;12,517094243108746;-165,4498188132005;6,7978958010674315;39,47068205432232;2,307176780613264;1161,9383069252253;134,16739297606725;1,2270795938242698;3,101218076729672;-90,69578783296197;4,130521184631924;19,489006592764454;7,776408179840054;620,1816627918586;63,71418814225922;68,0241517019855;3,0376157756016435;48,72913534188387;4,5930148239485895;5,1530408213973;0,841405621105178;56,670115968225424;4,527219344432065;566,1296467529498;45,39831906100917
004;001;Valoxy;Isometric;Isometric;semaxone;VM;20%;5;Dynamic_ATT7.2mm_scanner;Not_Applied;S1_D1+S1_D3+S1_D2+S1_D4;-0,09471550357741489;0,3071405717947998;-1,9672911998154998;0,5579260523570695;-0,8014540286320123;0,4893193631878282;11,374875362185552;2,6757407197091334;0,8328183184450493;0,15582958466043945;-0,5273837833508812;0,20334087753237587;0,15072085877617722;0,020440806818403868;4,078565031294323;0,4618510306767898;0,006712782380498905;0,48666420024151935;-2,6654956469364093;0,6596017611405655;-0,402365987055624;0,1750519748829315;12,624683302046478;3,415697934363226;0,08969066346714082;0,13302272204608862;-1,938896085113214;0,5572324640549476;-0,008892996139335696;0,43750082302651616;10,334046943782738;2,4024206218803705;-0,16060240005816376;0,44407285343600966;-2,0489910964421085;0,5068432062972174;-0,5913686173440342;0,2928527502618433;9,907604383265701;2,9190284828301865;0,9732835534170949;0,36418645499628116;-0,12602958801722916;0,1862771033322081;0,14776944986619228;0,0233205984289297;5,122922297956169;2,077419391871052;-0,3235538190441777;0,5739833773951276;-2,9122088269976096;0,8056832872405414;-0,40909717175605775;0,17617490230369484;14,41957258323012;5,245110287329987;0,2029355237483335;0,26610246173670177;-1,209596986271735;0,4082951802785237;-0,22472961199095232;0,5277755171716035;5,743012881409454;2,052900727680687;0,3893908401424343;0,6623753901556682;-1,549061465654883;0,4718485641776906;-0,5919088252013751;0,30762237497600214;7,7328653108871475;2,953480897194242;0,9098017980528962;0,1972012673415181;0,2560317533860908;0,22619674370141557;-0,043591590339199994;0,3200403656860509;5,805596147029133;1,987106605416991;-0,1675204234969177;0,6673259395088232;-2,1298508228182245;0,6755608912021159;-0,34940343518532;0,11675979890973517;11,422752431674219;4,618758656279651;1,0345664173292135;0,5936052342550334;-0,9891695422674995;0,3930908233921577;-0,8052075605700981;0,5251575525394753;6,874352060215732;2,6763615201578195;-1,0177926741979557;0,3427399694094365;-3,931569576476332;0,4068296780414855;0,704307910186105;0,2130482416457351;26,17866340071709;4,108832630821846;1,2224197551497773;0,2869853838576921;-0,9274367752508781;0,2204073614314665;0,25305546202387996;0,026690651934248598;6,9450576244572515;0,8378851086387897;-1,6222453209429577;0,6103550662719474;-3,625495670296541;0,7573952377595826;0,06045276078596338;0,7805358976312402;26,219389054989456;6,140226006043009;0,1734858981778102;0,21234904073877447;-4,427011476883267;0,5381318695870864;0,8731695980479591;0,33791580480955163;26,446940541652076;2,8458989752736765;-0,6278572567696756;0,2805853267617588;-3,4658771942377222;1,1815092658835633;-0,06392185918154299;0,6538750698119375;19,279805113606287;4,607660269301237;0,871192416239824;0,29788246585558753;0,25079884606987635;0,06667612333492033;0,08826388793030607;0,1205638936074096;5,091531791465245;1,1921947139330604;-0,9669617603158359;0,27989361272425684;-4,30491887068601;1,4767021676968;-0,09811672740695349;0,7885275088765906;24,371336905071534;5,748612040010704;-0,28849766402298727;0,29415610117880137;-2,6404633435327853;0,888377632154007;-0,025291330485841645;0,5200251785951341;14,196421280760589;3,4889046519339844;3,6887630902231363;0,4460281886007041;-0,8983367275472156;0,47412091009613627;-1,6398068740236624;1,4067702077674906;24,936927407404006;2,319030160765024;0,9059461923154286;0,18830604044261084;0,066941226743937;0,13772565543187784;-0,7917132994682673;0,05946580511728376;5,79020697394175;1,445129866345421;2,9532184636145487;0,4657864283745909;-0,9879385986881031;0,5543868155844458;-1,3661961958519793;1,1976720356636767;19,936493329777118;2,304368331165049;4,461312137010358;0,4243080541446307;-0,8207544623804474;0,4404759103701007;-2,484981658172979;1,9559121923059628;30,050630507985915;2,7823912159579374;3,1671465032086235;0,39330976528444006;-0,5312182685007087;0,5809454276298097;-1,063217630549665;0,654212079292808;19,15067731449768;2,3161593825207167;0,28981452898847426;0,11187166109621964;-0,9942134259378432;0,14967155315167896;0,23074234367565577;0,044251351894747916;6,283807144532581;0,7013631934573717;4,051802640960856;0,3347987638950756;-0,7519135855645189;0,6969829582857382;-1,3894256168672274;1,1262430050492174;25,24333203786628;2,29470848859892;2,403540253503858;0,33260135585610656;-0,32440834991363765;0,46285130958556764;-0,6920766016626207;0,36475545153266803;13,168377581904338;2,4770019372433962;73,84099024729906;0,2323308563922674;71,54290316090892;0,22885442353581892;-0,3257589397189896;0,044661800274997304;72,80881325467726;0,24171218420565163;728,0896075028891;2,4235252276290136
004;001;Valoxy;Isometric;Isometric;semaxone;VM;40%;5;Dynamic_ATT7.2mm_scanner;Not_Applied;S1_D1+S1_D3+S1_D2+S1_D4;0,5566853633728568;0,6515496607770666;-2,182213454861899;0,34672325963864375;-1,824470834320244;1,0041827269373205;8,82154629813342;1,4093601009677075;1,2382898092377803;0,4974468062580756;-0,8968209935943443;0,23533219705213787;0,2396625864361636;0,042697138977987596;7,598058054320235;0,8122115356829838;0,9604667206941272;0,7154737449038451;-3,2068555232282976;0,7664337188280748;-1,6329899370248349;1,2704720388080244;14,134680511331704;2,056996389348544;0,8158802007376412;0,4188777900450773;-1,4585713254478225;0,430571140267533;-0,5012929747672421;1,2766371783409365;6,866899392557812;2,2544135145328323;0,8409026158161292;0,7382372322008228;-2,581918204059005;0,6984328243929168;-1,3453195204431503;0,7358845508233599;11,679455947566462;1,590560507070937;1,7145681546593383;0,6316238805556247;-0,5041668369577404;0,2629456929081719;0,27667777601436605;0,045827922822173114;9,33090328191373;2,616083114542886;0,9988938200029841;0,9023665541010291;-4,029313863894956;1,4189891496304143;-0,8862522097255742;0,12604522138853716;20,2082562000095;3,128197393138095;1,4104423897646154;0,30925508568625526;-1,1484348196016554;0,2529620406066574;-1,8589800084043429;0,6927348627907987;6,840218717210749;1,2192524012449635;2,0641811179557266;0,6094947995210188;-2,1695612477620343;0,7141506909005598;-1,8161665757348466;1,214048283374783;16,498064258025856;1,8791036678837936;1,7433804201190175;0,45304613781197084;0,6002240070832188;0,32958927678510674;-0,43701816803689464;0,82621808027925;11,792791274134935;3,2499204135893907;1,0270115281756642;0,7195114355532913;-3,0492172735548237;1,0253865106246598;-0,7469751449853815;0,17444445617879983;15,972267449345594;2,4030373407892145;3,683944417962998;0,5547880522647629;-1,3722124758326593;0,48448590458035007;-4,037368799907177;1,5681820732622418;19,762553630108137;3,0669290917743406;-1,7811480873267207;0,45267758680916276;-4,328953041157499;0,4002829351802329;0,4919192805946002;0,14835465295915698;31,863638129078304;5,334920079890977;2,395126518498402;0,9630049784838836;-2,0995883623049765;0,4838814601026465;0,5263389234444413;0,1020933819987565;17,253974986001104;1,1012652931361377;-1,6355719267943738;0,8835498356492026;-4,62807637729544;1,2955762280658265;-0,46038541801617716;0,10483810909711161;32,442757469314586;11,676572345489696;0,567227588994986;0,8587710553275975;-5,9443931076002166;0,6981911124743136;0,7015568780880387;0,0628091880060678;34,219101346317046;6,6946239226170965;-0,08239869820443366;0,44239821901621845;-2,169049830555625;0,4463696012018751;-0,28804651045699947;0,615522036772804;11,612645048156619;3,623542318392285;0,7170506891670134;0,2247067437655403;0,17150067527860485;0,1524884441793371;0,015472929031431298;0,11779449712314075;4,230907190575629;1,6548744968184774;-0,35210436802825523;0,5261352153560256;-2,80026827327478;0,6681685145553043;-0,2858897318695518;0,7030377449782439;15,826151818078078;3,667420787155225;0,20832691019988983;0,4711081935459295;-1,5554643410298117;0,3381644630210486;-0,49812457736818583;0,8364943846682904;8,103267587789274;3,764619512319598;7,05885663616545;0,6385054644612604;-1,402508606059133;0,6754636911859222;-5,859800011867625;2,985905726883272;41,9286968829266;4,850137859225626;1,8033064145650695;0,4307778123048917;0,2420436839397757;0,18370229280731892;-1,4851592691917157;0,2968190011599695;11,485659642482595;3,5235813840646024;5,387709276336541;0,7853533827771055;-1,6926179017371248;0,6127068509877858;-1,723177019202114;0,5654362616158831;34,06446264002586;5,15282966670368;8,759632500803322;0,7518407926119307;-1,1565923850660211;0,7554014519805599;-6,813693646378143;3,376805250627307;50,44806041838609;6,112592915503458;5,125275137798338;0,5878005850643842;-0,8721750876367101;0,6992583732055375;-2,7480170365974295;1,358835106735793;28,909382910246258;2,2964978031177385;0,386989756652138;0,3044301953675999;-1,2958152803876115;0,20279243420392226;0,42865579485316563;0,19324358175155845;8,025158461833222;1,123961579481065;6,3592808115523045;0,7897560000422784;-1,205998678415749;0,9895663287007259;-2,6092617868320267;1,5999274242341235;36,72308703170444;2,964077384652458;3,992711533984706;0,5096551941966461;-0,5544927351046436;0,4758004944332327;-2,1429637649182802;1,0630469237698146;21,453804448312844;2,3535607563320937;72,53619120223414;0,7704095765534325;67,60337927878962;0,756142585045642;-0,5638406272837323;0,111933376779048;70,04565546725284;0,47133276365554166;700,4450987781055;4,6981516566522075
004;001;Valoxy;Isometric;Isometric;semaxone;VM;60%;5;Dynamic_ATT7.2mm_scanner;Not_Applied;S1_D1+S1_D3+S1_D2+S1_D4;0,1933230862202351;0,5705197133525016;-3,2847529328437473;1,0479606324429689;-0,7897031497485634;1,2252210534261945;13,037031570640522;3,291612236900648;3,5254570311014413;0,7560751951678475;-1,1386126344646876;0,36889244446767777;0,5895689522592396;0,04427774299775252;16,306421366538054;1,8658996397572984;0,8865325422085458;0,6988675220830909;-6,593908467723781;1,6473581229303602;-1,0460283859953796;0,19154333829465164;26,842656260237202;6,871307018494758;2,0874910738325534;0,43792309831566206;-1,4160274131417954;0,6817155075859195;0,5228585977890399;0,07918889105201661;10,256209051752156;3,9243900832278356;0,20268533626204605;0,5040843662345155;-4,499287195378491;0,7198721461615359;-0,7153260956812842;0,10258666807898664;17,90257191131139;3,5228852289393595;4,30879491457865;0,7957021209741213;0,09201853082236003;0,5460574940226;0,6333245165820747;0,041750068317680196;23,77227163010549;6,083004796106402;0,09029372266411037;0,7447397755071137;-8,568426780663007;1,4463346593390132;-1,2303281097098868;0,12732696568125937;40,70651798252114;9,205698440992167;1,686973492681481;0,661359613724301;-0,48019022069463124;0,47116885886780663;-1,7530557872871628;1,1999101147726294;8,908630257085147;1,9992034218733097;4,1701806802505486;0,4605201059784738;-3,407912148362809;1,2085364331269595;-1,1660594358079694;0,21857929592301104;29,7439192996612;5,326539022199073;3,9749707934729637;1,00227518611252;1,0345017332800328;0,49786270842254593;0,39539865559779186;0,05678809680621211;27,865527263623335;7,530253378299201;2,9185813413666786;0,5958372583539926;-7,142924249376106;2,2611760913198693;-1,4038991348608776;0,2649171977976963;33,87024444506143;8,070143365172584;6,228598678276783;0,931782043344912;0,2696933053066263;0,3933105394112293;-3,665359732833566;0,7809648107190589;38,85528551437217;5,551939453722998;-2,1186915742147283;1,2202935494908005;-7,9015763475044665;0,7866984435824669;1,3165551733745604;0,24907203967904565;52,67155667570471;6,488249849645308;4,456170448601519;0,8949449184342391;-3,8786310386671063;0,3646576075117716;1,1917088334457917;0,09797704756471118;30,424052134679783;0,8947964584179895;-2,3460351113926126;0,7597685501395564;-8,052996525390316;1,8311628163672036;-0,7898111099171252;0,1615576606621484;52,38881599293624;11,587897260145995;1,3288952351591046;0,7512721661848699;-10,163394139155908;0,6754830909300417;3,174683854701784;3,795851002315202;59,98525785922057;4,314678001218247;-1,1017653809052743;0,8233270619013756;-3,3648284321676734;0,5441351594845938;-0,020242533126762552;0,36106646848515755;22,67270224439046;5,732356847636221;1,9254618658610454;0,7324973200115016;0,20341325703861296;0,3045363936248371;0,24746030493004056;0,10217096618059983;10,394979689322508;3,655939470732185;-1,4879067661334637;0,7927776571905109;-5,108173644928838;1,2312700310114333;0,4633171095488521;1,66889101961757;32,95153189810394;8,326534947767927;0,26489782439289494;0,3186928625156823;-2,253147069959128;0,5473541180320707;0,37344198180581256;0,09546803731188085;12,86764125628008;4,375852308433786;10,84513508517737;0,7013252770080324;-2,3789162982496412;1,0798789876922543;-3,9394347904921445;3,300859080285984;68,77242833674985;6,215144274048976;2,805560678598919;1,1550234183948664;0,7820049844061303;0,14837956922727738;0,23814458702194802;0,2755990477456297;18,038826350249916;5,716273937785782;9,876152903791642;0,7677216371521881;-4,979234522251884;2,2549946944413284;-2,236125748535051;0,36776285217797244;67,01808678924506;7,68737160844784;12,422316369441235;0,6512986501400332;0,10932007813474769;0,4664179468044018;-8,427538751394401;3,034281667582835;75,5624470734416;6,310787800201539;10,062993107800441;1,3813579968796905;-3,7160491194610055;2,0293029296188907;-3,8396658862378565;2,3212584163725967;68,31861769885595;12,196250814151561;4,280524979821808;2,7630958654274504;-1,1637760769498786;0,4741275497793479;0,6006569929605591;0,31045326318707844;17,872860113978998;8,820492016952576;10,920989472124111;1,5781004456453271;-7,881443841679449;4,62373931685531;-2,376669417293205;0,5529387875033962;83,19472277137164;18,97367393327754;10,017017909376474;1,6724088146809664;-0,24805426289523877;1,4718831227209914;-5,696690646098285;1,4435230976961277;60,763517801550165;13,06199839062816;72,46899921166637;0,5828559349183116;65,20931170457801;0,5569046444838175;-1,0145774627142194;0,16047230012104957;68,77568927508804;0,6929642972963096;687,6745302187117;6,958268508269616
004;002;Valoxy;Isometric;Isometric;semaxone;VL;20%;5;Dynamic_ATT6.8mm_pince_ratio;Not_Applied;S1_D1+S1_D3+S1_D2+S1_D4;-0,07960152537071448;0,8709915541980504;-1,4387709886507132;0,8969711220306725;0,15021308873152878;0,303864689012637;12,036872459708041;5,695557222074529;0,3690111742113413;0,3089202641704499;-1,1321891701165678;0,4421180282002107;0,16456805353135057;0,03580934890900029;7,730433013498049;3,247067068402784;0,8119600213862425;0,9508918341951277;-1,5912399645671862;1,126663823342708;-0,30601827198689463;0,08755306746841651;10,699669258118993;5,934153445518451;-0,405884870414927;0,8934876280414353;-2,3258063288684836;0,8771674721669397;0,7166608477229807;0,8352056406720075;15,827558216901043;8,94179553650285;1,760106985933951;1,2661634402424902;-0,9894776176778836;1,2373874474441178;-0,49872035407554094;0,19798361964678057;14,474944017099947;5,975107738119308;0,7201111766927498;0,19021995926400076;-0,02396189825905351;0,18515773620500592;0,08406271122014027;0,01635460395114383;3,502109692200021;1,2371262224102029;1,6195152803275694;1,2273055171991212;-1,6017920853141305;1,2997488461189994;-0,4117280631821899;0,1016071818454547;14,734985618981971;5,610310742406974;1,9918547075379007;1,374547921500119;-0,42285024399393906;1,1844547403615344;-1,1941662194369091;1,078972948605448;15,043540252694987;7,6587198153018585;-0,6090488599172645;0,9694654276128477;-3,8111784769146113;0,8691070578893015;0,5586264697002971;0,2120359837235506;26,43441387800682;8,19853828466286;0,6126630711274521;0,24702782670980208;-1,563686639879165;0,28000611568982586;0,25594535408678903;0,03596048684710423;9,964767734551872;2,1196736727960395;-0,6381091793225341;0,8798547602794363;-2,6611222174883222;1,0013539287999624;0,5902222842853492;1,1677099136401548;18,967125457053886;9,441533775018442;-0,2005970665564935;0,8422376577832958;-5,152943794048942;1,113986649882235;0,7422083500561318;0,28219688033413354;34,43347625678021;8,104256210077883;-0,8910863070136689;0,8738200802674303;-5,1481942150310065;0,6457592334655109;1,3120879408257433;1,2665286830116427;35,60827400367628;7,682821639782731;0,7078077000737798;0,2293120295838618;-2,0960889134744036;0,21253721264173112;0,3087242011195156;0,02301941873626374;13,78603336875518;1,581688684292857;-1,18991626022299;1,0699751803516688;-3,3799818082460176;0,7750667261926363;2,1439749861284563;0,9588258437155731;24,66609251295845;9,159400247055734;-0,3896607511020704;0,680479221787471;-7,121273484122595;0,7030641145273815;0,7945795460562523;0,1536636215799393;46,59061389979549;6,814568300405729;1,9478020654616235;1,0513798342511373;-0,2553036139668449;0,9872006997620058;-0,2690923805915408;0,4004976219751058;13,547459723951983;7,688776330681097;-0,14246638280988644;0,28401285556864947;-0,7861189145021481;0,2790270283686912;0,15188414655357968;0,09058163636319946;5,48222671651601;2,54593237107435;2,6840654799639347;1,156049735947905;-0,03587539164757221;1,1376890013313916;-0,5436413977735995;0,2805518713744879;17,203438468732255;10,871210280756312;1,2939078065671274;1,045987881964567;-0,4821899678887965;0,8910679895810444;-0,4843373686186753;0,25410741823232946;11,303855275542423;4,315215989294711;1,2168758843962153;1,728472118342097;-1,4482921401009143;1,3763828527408573;0,1746741299742984;0,5851111534811018;15,447592686177742;6,284391211137583;0,17855400588274298;0,1798540045706085;-0,637571423076255;0,1710821040566449;0,12459648874470035;0,034668267194627254;3,8590785410947293;2,0071587423753185;1,6809906951731655;1,8010666118721714;-1,501666969121112;1,440822838026823;-0,347548841065588;0,8501224322527231;18,066504631362577;4,056679817271757;0,8608137602530835;1,5348426481973219;-1,6043092120215943;1,3008242001497754;0,3188857180884893;0,45377116886888763;13,044688297159576;8,7632060033709;3,021086274031999;1,7379228605888515;-1,3506762201220286;1,9327459413640433;-1,9058960754443608;1,6774537127761016;22,40448150207519;12,68798878513187;0,44434083414934344;0,47850093951863615;-1,276258220478626;0,4449655827653866;0,20113594018170158;0,035494319997195906;8,304796721235808;3,561704772502825;4,113818946936189;1,8748653180789032;-1,7162937371238578;2,246060122367335;-0,7360518469951173;0,14437295997192676;29,802968612174574;14,487428801188289;2,1044932712992415;1,7370008029136446;-1,060218024140793;1,7090917311185074;-1,8330044324989092;1,4173897806664941;15,91913382853573;10,641990405725043;85,33773669834757;0,5454356162455337;83,14655151959614;0,38424717578776835;-0,2785865781372984;0,059614118064484745;84,51676734961684;0,5300489432459563;845,1968782507076;5,319507985659087
004;002;Valoxy;Isometric;Isometric;semaxone;VL;40%;5;Dynamic_ATT6.8mm_pince_ratio;Not_Applied;S1_D1+S1_D3+S1_D2+S1_D4;0,21570576163959937;1,0961525453835226;-2,5414131424923823;0,9762184059132064;0,5568541341138392;0,5013584130228093;15,449546485039424;5,227652907408282;1,5605524829287574;0,4453809554104876;-0,9848178461243693;0,4591934014567579;0,3211066507850718;0,048016558529442914;8,204497481000734;2,244187217441686;0,4077377726617635;1,1943177957150963;-3,1480736232884916;0,6231089105261091;-0,29625724614794624;0,4826790152760877;18,153321939028668;4,826717578426594;0,9846052071508671;0,8715324608307091;-2,2934276249881336;1,4211046335337334;0,6969540108551496;0,20617406168372315;17,836391505619275;2,5796691896689;1,9039720867531287;1,0163184783591994;-1,7914327961658958;0,3036219577148218;-0,5711171179363476;0,1439614211799637;12,564032555090005;4,839752443369898;1,7411324195897577;0,3494076303921545;-0,07961032759017894;0,2516049801925753;0,26157072464593306;0,03340121980624568;8,801587054566948;2,0854395588023698;1,7775717656422052;1,1019540192970942;-3,1704294025570086;0,4694688825561471;-0,658848043451995;0,13640811733458308;15,591338161894228;3,5590771613640704;2,4358677664618233;0,9415320668662518;-0,4263067474823889;0,33572682298949835;-0,8606607498571431;0,6821795118706822;13,869784838385968;6,906927876100018;-0,25284750016845664;0,6373306958323788;-5,188835530845775;1,2679948937108843;0,8495452808538694;0,7813630957844406;32,18473391473576;11,879742103953923;2,5401226096182232;0,6082223119991222;-1,056416058314723;0,3694116036350191;0,49029597275478326;0,037954816733050234;11,156847757591738;2,2715815300743114;-1,1192167924807255;1,242578340254333;-5,9658086858089;0,8714185302910914;0,8291180220692478;0,8463366717790444;38,55699709252643;8,809817539623394;1,4162472410343039;1,45318728483129;-5,099336888681556;2,0953709136496084;1,8745358505782712;1,7214076850402993;30,839451475430064;9,965823436031021;-0,1535766096828465;1,0894163539368993;-10,055833914047035;1,907110568355751;2,6359807154354895;0,37619351366865916;64,56102482842805;16,120779957356106;2,418089676812533;0,7703825288171317;-3,506091528921199;0,7105096927196924;0,7992051833315867;0,06118277741828267;24,130076557301884;3,168850668628339;-1,338401370222158;1,0203901089798073;-7,9363457737662255;1,2315837892960537;1,2656356561532616;1,0488120985622957;51,42423151984492;13,254507475397963;1,4290225750821883;1,9906123134776015;-12,45297282194941;2,788855402860215;2,9592903369907106;1,1713209083394778;81,0126315311159;14,665834650494483;3,8905583309115075;0,7264243008607464;-0,6596709408558432;0,7482158486132251;-0,7725049167960192;0,18004021369917078;24,968488282739752;4,758285745067805;0,5884240642679289;0,15040933925844954;-0,6977465051332085;0,17949273912427313;0,17127555729431257;0,008951570788375553;4,006216301003359;0,6912770542856429;4,506599503780547;0,6961300632569258;-1,0105155683615035;0,8338968432427895;-0,7801084449521103;0,11126021171362782;27,477327502428658;4,437504959865813;3,4618688349953937;0,7130217136846442;-0,3998895051551862;0,666883970181699;-2,253223791704474;1,8559889099044076;23,073397849971684;5,166276787936306;2,2362863706338176;1,1467878421348423;-0,9376924578682951;0,5763233953260206;-0,6710786068990158;0,24991642048056475;13,407699759648253;6,9222463702612815;0,9753093685892962;0,10261829643440525;-0,7503532665434122;0,10023543969360264;0,2355853922772219;0,012176259030382781;4,755947900407284;0,2758708343406147;2,6353911278568924;1,3028072284808452;-1,8536529992041313;0,5726891675340502;-1,1915813651548148;0,8768214618377113;17,27620392638886;6,12452025316577;1,9621212455238708;1,014104660295417;-0,13507845246444664;0,6715987870362533;-0,4323658201783889;0,48593145281803257;10,270529537729136;8,420415640789171;6,419042477093758;7,085623751135924;-1,2698173041588694;0,6272167467326848;-2,6755933364169593;2,7228031839732343;27,98993850295716;25,290209517692347;2,323159880623255;3,269574316014785;-0,570497888619521;0,49471515288801937;-1,6773261138659854;3,6931663250625695;9,66798384115702;9,278500260361772;5,021512183014168;3,581255787943957;-1,939410415822557;0,9262430670184506;-2,3377017625847474;1,9617167806273228;25,399485485274543;14,222197173312885;7,8725493427008315;10,64062100582233;-0,7043235754503682;0,573658866741261;-3,6700913255978542;5,122424485547494;31,21179794702734;36,96404331808298;85,91475238346683;0,9124915876420011;81,66180217836683;0,6653272009919723;-0,6046956573395239;0,05624211555891605;84,02725552930283;0,685824319885028;840,2374557796757;6,860267875312596
004;002;Valoxy;Isometric;Isometric;semaxone;VL;60%;5;Dynamic_ATT6.8mm_pince_ratio;Not_Applied;S1_D1+S1_D3+S1_D2+S1_D4;-1,5620006466016836;0,47379518859230546;-5,217350931448607;0,5741127800546639;0,5963401634862688;0,5277933237781293;35,8331561312111;5,447896252660172;3,697061952568631;0,27733498936114437;0,2931806239342441;0,7226987792546647;0,5098723523597497;0,05365017447057777;23,215497096674824;3,5827424985621046;-2,806311053049355;0,578698278330374;-8,048200310329541;0,8436541003272784;-0,06132311703622819;0,9817570899195047;58,51783944388437;6,395256170429517;0,9048575033309085;0,4248748327419523;-2,7523613972336074;1,0533455584763427;0,5933238417666428;0,18747921733061865;16,19751079507249;6,420003517326851;0,3972225001651256;0,5994009716391749;-3,3543684091292625;0,48021170721016915;-0,5957698408853197;0,10168476698825414;14,276119067151976;3,2994586437172124;4,1571730965874885;0,4268005895741817;0,7885917609005783;0,5200338912909972;0,5362456201411281;0,05817945855437703;25,189087360212376;3,15346164289495;-0,41120023778914094;0,7897605181692324;-7,096983272049313;0,7631512888757954;-1,015944057975592;0,07025811568705613;37,20623441683615;4,824349377518341;2,5359699543492744;0,8958539663687377;-0,05192736489676455;0,31315307747649485;-1,5463001312765328;1,1584714401501852;13,599885242756537;6,0705598948406285;-2,4277942848380762;0,8232410258200238;-11,826432943922853;2,354610743918674;2,0441144267398887;0,5144331758727674;77,39062164392011;14,545078819374538;5,632375927412547;0,3652471838070986;0,27957691831344167;0,7686748059489892;0,8089417086544678;0,06349142748902212;29,713389135739213;2,8371097790832396;-5,639270654383019;1,3186427351676133;-14,521716966126371;3,0132431403397715;1,5214435147127445;1,326022567131352;106,48798415287308;17,647748817077055;1,3802771233948907;0,4547834437785959;-9,604292275541493;1,9316848650286595;1,7127934817947157;0,5460501145288429;55,32854449300585;9,946386726328475;-3,1917454407654797;0,8801731470396199;-16,04914473834538;1,7375773283760518;2,778177569027677;0,516150711703657;108,90095660820165;11,799008457753608;5,600883059195889;0,43429725987529727;-2,802480867997249;0,9297323179047358;1,256255300906646;0,08670695009802146;26,56197422557026;5,4855896093788035;-6,813424122856065;1,2765939536301858;-15,855610120238481;2,2610361632216445;1,9666999518901918;0,5322523118899494;121,09267319562734;14,326495761275691;0,4826763706296334;0,5863559468835962;-17,236439558279333;0,9903546225482494;2,020098533696399;0,34072701853239384;98,32779591954176;9,520516271168434;4,783440079759262;1,0537127298401994;-1,4175254908705512;0,8202668309477884;-1,2608901255005018;0,49576850302186554;27,355684243461575;5,13563201945515;1,5658505559609825;0,2781222669651577;0,24714011702450467;0,3673729320986822;0,21584219388961046;0,03487542562115463;10,010583235011836;2,226654194863901;4,247196025739966;1,192210937829383;-2,512055377757733;0,9032862491642921;-1,0497349587445055;0,2280165605787597;26,037923781603343;3,866421250999952;5,705069086351136;0,9371999463091897;-0,3364077304376626;0,798590045910412;-2,0148593369908676;0,9259323330922036;33,08188504459809;6,828331568398682;0,5060519063232937;1,030367348137974;-2,7134596531350774;1,386413833877535;1,4621748854706424;1,7491692715784517;16,809562126918618;3,979102491836907;2,1374301351340916;0,1633044274091046;-0,004949583409943115;0,45241729396426245;0,3161694849570011;0,05058637934243067;11,750532331251762;0,8627740303695799;-0,4842092192609673;1,7898438295410182;-4,158193951329165;1,217489087015917;0,7595331425809523;1,5432167505691137;27,92989432915482;5,3213587407208305;2,0977711123333433;0,5825863094856495;-1,608432243060739;1,6142532701015089;1,1951893441487258;0,9390847008792824;14,60750980362784;4,695351482159807;22,46664007083891;1,0850109400779264;-2,506681988304064;1,191130600298775;-15,740309267762521;6,3302393563777954;134,37424645850803;16,572664492135832;13,693773679790059;1,0838835531254722;0,8749710932254073;0,2821102587117848;-12,339394475020152;0,8540631174232758;80,28162184516431;11,78603435148634;9,895950914178576;1,3654769083431102;-4,013864714651769;1,3245333209081167;-2,46400914939831;0,5431377263170606;64,8101725193969;9,350357830518119;36,15579121411255;1,2874708009866158;-1,3037720922429017;0,9096656427538005;-29,204802935382315;8,333882449185626;205,7056921834535;24,646678176101318;84,84199252209763;0,9252348352663208;77,7614714036213;0,3556468971620664;-1,1508869906576205;0,18962983559310548;81,35394945962598;0,40752138713845704;813,3973015099217;4,0904924049590345
005;001;Valoxy;Isometric;Isometric;semaxone;VL;20%;5;Dynamic_ATT3.7mm_scanner;Not_Applied;S1_D1+S1_D3+S1_D2+S1_D4;-5,0201002886665504;1,4014996736171832;-15,875238770831368;2,744710743090403;1,0450199139708944;2,3394634098116485;107,61807333887616;18,70722140102836;24,87872695724302;2,8733330885956883;7,7502382302183985;1,1393671968011616;2,2855312822325042;0,17377299133778804;168,33235025121084;20,200006071010645;-13,31278391298467;1,060668365236449;-40,2821915348192;5,274429610118205;-3,53113554254091;0,4388145713427381;275,95042359008704;32,866062945062005;9,917879017724644;1,755963425559185;2,1876925474521274;2,3389665139063167;1,0810467863353481;0,147285401263346;60,71836567554671;20,87152982451899;-3,627570484962613;2,5161251108687694;-35,184815477424806;14,237542239439234;-1,2125529755049225;7,050609521681837;160,87623565598372;73,59087076322473;27,290656449986585;2,6771809009449767;10,267825517710449;2,6912471642637774;-1,2851015364349136;3,593955768019024;185,84122550897524;28,827273699980406;-14,136586481202633;4,877679194982403;-62,04582333457487;16,23502903876908;-2,1049696868633774;10,193136476072771;346,717461164959;97,33530434293908;10,350794462488512;2,6924785441143073;-9,307922951030193;11,177749210970376;9,881531886992752;7,0914067078953495;75,01003206223592;19,103085234857378;38,37080400673109;10,011283526312177;-9,584200301724502;2,9482466145977004;-59,31142727608485;9,959742896407018;89,44067974381261;28,958198264266915;5,413751362185311;1,6172312601903027;-7,373561184648386;2,9392547241983635;2,575654388669984;0,9811422390331848;46,606660670512795;14,181253298502906;39,18219306318807;9,064852194203855;-14,77266787901408;4,445704589403344;-55,63668336146844;25,00334219373669;124,62184206696402;49,58407580414761;38,51953594175031;10,024484872582052;-8,055889846613372;2,678603965785699;-8,355253548389367;46,99396427363994;68,13406710250804;11,051833424488013;10,329007271838353;4,215887606708565;-9,597554978376648;4,9602608684952525;-5,201373102881689;14,77711034942027;42,6921532877314;10,6836017193185;21,443850918570703;2,5089128842065116;1,7302706160653614;0,9858268875201674;-9,583465151571044;6,23010735349393;115,9507090234642;19,897334435337847;-1,1673740760642926;3,890361859231555;-23,25117527060169;6,492705246538881;4,352142704466482;3,6308825632310837;126,31954133258598;34,94222371867183;31,12506341617135;5,0408377309094465;-1,6627844891903631;3,008786147516453;-22,607360264475737;23,47682752364205;111,52277281245543;32,537254070895244;-0,35096558432242464;0,6937024862607867;-6,658415133468101;1,2426118889926294;-0,852693248909634;0,1085440733674258;29,500816999864877;7,260575181854423;10,44376395119445;0,4446894268021697;5,537589772558292;0,46344824559595316;-0,08127241929454479;0,9432569306168516;82,95261931155649;4,355751883543776;-6,116967590488774;1,165756193243322;-16,540059162762397;1,9397264050324603;-1,3610401952454352;0,17208612470386764;112,41512928348554;11,110934688767653;7,922160256834333;0,46705279142721456;2,4603683681555935;0,4890420841099709;-1,7927838451388953;0,329576979067965;53,49010933962745;4,575499676897445;5,425170754788106;2,137057382772846;-1,6874218481624061;4,5019705334625515;-3,717160014847375;2,448919686515139;33,32900641083136;12,540235529817096;10,582831752650879;6,427511287776792;-0,39945162231379544;3,7322958452050496;1,1925276581083457;1,238038480089115;45,241011401993866;22,615461994836554;4,316249630839562;5,743683630567575;-9,389093103075691;10,984878701045417;-2,0096355286030323;1,2894292473993894;57,27322284808709;33,31947130934416;12,902993871293493;1,639972478000569;1,5181620383697116;1,5704715616796023;-4,444804714531072;4,895369789487065;51,236050352715594;10,866884987725275;34,96617645365507;7,6759918492105115;-10,140128681097462;6,011882727645202;-18,571283739736288;14,681348600020447;256,39306134110365;56,3645436655873;7,464673435847828;1,5273993056665784;-0,13770406502599347;1,721602754943366;0,9723207712633506;0,2913894904739519;39,857364614215996;15,522576554407902;33,89996847375519;10,377289084843834;-17,506784670431657;7,338744284122289;-13,02009939378461;11,463124560843607;249,9838830742082;60,925029533864155;38,40004769009148;5,791967941301164;-3,610535946347735;4,584050293177342;-24,715479143849013;14,087192039615383;267,8544438395288;56,952825081568896;61,11358255575609;2,8045738611154714;27,691193318001904;8,71857646586035;7,568037901187526;1,1471599427026982;45,86153914105255;6,21964149353269;457,5849132591331;62,385915955736635
