Subject;Session;Study;Task;Contraction_Mode;Recording;Muscle;Intensity;Num_Reps;DPF_Method;OLS_Status;SmO2_Channels;Mean_Max_HbO_S2_D1;Std_Max_HbO_S2_D1;Mean_Min_HbO_S2_D1;Std_Min_HbO_S2_D1;Mean_Slope_HbO_S2_D1;Std_Slope_HbO_S2_D1;Mean_AUC_HbO_S2_D1;Std_AUC_HbO_S2_D1;Mean_Max_HbR_S2_D1;Std_Max_HbR_S2_D1;Mean_Min_HbR_S2_D1;Std_Min_HbR_S2_D1;Mean_Slope_HbR_S2_D1;Std_Slope_HbR_S2_D1;Mean_AUC_HbR_S2_D1;Std_AUC_HbR_S2_D1;Mean_Max_HbDiff_S2_D1;Std_Max_HbDiff_S2_D1;Mean_Min_HbDiff_S2_D1;Std_Min_HbDiff_S2_D1;Mean_Slope_HbDiff_S2_D1;Std_Slope_HbDiff_S2_D1;Mean_AUC_HbDiff_S2_D1;Std_AUC_HbDiff_S2_D1;Mean_Max_HbTot_S2_D1;Std_Max_HbTot_S2_D1;Mean_Min_HbTot_S2_D1;Std_Min_HbTot_S2_D1;Mean_Slope_HbTot_S2_D1;Std_Slope_HbTot_S2_D1;Mean_AUC_HbTot_S2_D1;Std_AUC_HbTot_S2_D1;Mean_Max_HbO_S1_D2;Std_Max_HbO_S1_D2;Mean_Min_HbO_S1_D2;Std_Min_HbO_S1_D2;Mean_Slope_HbO_S1_D2;Std_Slope_HbO_S1_D2;Mean_AUC_HbO_S1_D2;Std_AUC_HbO_S1_D2;Mean_Max_HbR_S1_D2;Std_Max_HbR_S1_D2;Mean_Min_HbR_S1_D2;Std_Min_HbR_S1_D2;Mean_Slope_HbR_S1_D2;Std_Slope_HbR_S1_D2;Mean_AUC_HbR_S1_D2;Std_AUC_HbR_S1_D2;Mean_Max_HbDiff_S1_D2;Std_Max_HbDiff_S1_D2;Mean_Min_HbDiff_S1_D2;Std_Min_HbDiff_S1_D2;Mean_Slope_HbDiff_S1_D2;Std_Slope_HbDiff_S1_D2;Mean_AUC_HbDiff_S1_D2;Std_AUC_HbDiff_S1_D2;Mean_Max_HbTot_S1_D2;Std_Max_HbTot_S1_D2;Mean_Min_HbTot_S1_D2;Std_Min_HbTot_S1_D2;Mean_Slope_HbTot_S1_D2;Std_Slope_HbTot_S1_D2;Mean_AUC_HbTot_S1_D2;Std_AUC_HbTot_S1_D2;Mean_Max_HbO_S2_D3;Std_Max_HbO_S2_D3;Mean_Min_HbO_S2_D3;Std_Min_HbO_S2_D3;Mean_Slope_HbO_S2_D3;Std_Slope_HbO_S2_D3;Mean_AUC_HbO_S2_D3;Std_AUC_HbO_S2_D3;Mean_Max_HbR_S2_D3;Std_Max_HbR_S2_D3;Mean_Min_HbR_S2_D3;Std_Min_HbR_S2_D3;Mean_Slope_HbR_S2_D3;Std_Slope_HbR_S2_D3;Mean_AUC_HbR_S2_D3;Std_AUC_HbR_S2_D3;Mean_Max_HbDiff_S2_D3;Std_Max_HbDiff_S2_D3;Mean_Min_HbDiff_S2_D3;Std_Min_HbDiff_S2_D3;Mean_Slope_HbDiff_S2_D3;Std_Slope_HbDiff_S2_D3;Mean_AUC_HbDiff_S2_D3;Std_AUC_HbDiff_S2_D3;Mean_Max_HbTot_S2_D3;Std_Max_HbTot_S2_D3;Mean_Min_HbTot_S2_D3;Std_Min_HbTot_S2_D3;Mean_Slope_HbTot_S2_D3;Std_Slope_HbTot_S2_D3;Mean_AUC_HbTot_S2_D3;Std_AUC_HbTot_S2_D3;Mean_Max_HbO_S1_D4;Std_Max_HbO_S1_D4;Mean_Min_HbO_S1_D4;Std_Min_HbO_S1_D4;Mean_Slope_HbO_S1_D4;Std_Slope_HbO_S1_D4;Mean_AUC_HbO_S1_D4;Std_AUC_HbO_S1_D4;Mean_Max_HbR_S1_D4;Std_Max_HbR_S1_D4;Mean_Min_HbR_S1_D4;Std_Min_HbR_S1_D4;Mean_Slope_HbR_S1_D4;Std_Slope_HbR_S1_D4;Mean_AUC_HbR_S1_D4;Std_AUC_HbR_S1_D4;Mean_Max_HbDiff_S1_D4;Std_Max_HbDiff_S1_D4;Mean_Min_HbDiff_S1_D4;Std_Min_HbDiff_S1_D4;Mean_Slope_HbDiff_S1_D4;Std_Slope_HbDiff_S1_D4;Mean_AUC_HbDiff_S1_D4;Std_AUC_HbDiff_S1_D4;Mean_Max_HbTot_S1_D4;Std_Max_HbTot_S1_D4;Mean_Min_HbTot_S1_D4;Std_Min_HbTot_S1_D4;Mean_Slope_HbTot_S1_D4;Std_Slope_HbTot_S1_D4;Mean_AUC_HbTot_S1_D4;Std_AUC_HbTot_S1_D4;Mean_Max_HbO_S1_D1;Std_Max_HbO_S1_D1;Mean_Min_HbO_S1_D1;Std_Min_HbO_S1_D1;Mean_Slope_HbO_S1_D1;Std_Slope_HbO_S1_D1;Mean_AUC_HbO_S1_D1;Std_AUC_HbO_S1_D1;Mean_Max_HbR_S1_D1;Std_Max_HbR_S1_D1;Mean_Min_HbR_S1_D1;Std_Min_HbR_S1_D1;Mean_Slope_HbR_S1_D1;Std_Slope_HbR_S1_D1;Mean_AUC_HbR_S1_D1;Std_AUC_HbR_S1_D1;Mean_Max_HbDiff_S1_D1;Std_Max_HbDiff_S1_D1;Mean_Min_HbDiff_S1_D1;Std_Min_HbDiff_S1_D1;Mean_Slope_HbDiff_S1_D1;Std_Slope_HbDiff_S1_D1;Mean_AUC_HbDiff_S1_D1;Std_AUC_HbDiff_S1_D1;Mean_Max_HbTot_S1_D1;Std_Max_HbTot_S1_D1;Mean_Min_HbTot_S1_D1;Std_Min_HbTot_S1_D1;Mean_Slope_HbTot_S1_D1;Std_Slope_HbTot_S1_D1;Mean_AUC_HbTot_S1_D1;Std_AUC_HbTot_S1_D1;Mean_Max_HbO_S1_D3;Std_Max_HbO_S1_D3;Mean_Min_HbO_S1_D3;Std_Min_HbO_S1_D3;Mean_Slope_HbO_S1_D3;Std_Slope_HbO_S1_D3;Mean_AUC_HbO_S1_D3;Std_AUC_HbO_S1_D3;Mean_Max_HbR_S1_D3;Std_Max_HbR_S1_D3;Mean_Min_HbR_S1_D3;Std_Min_HbR_S1_D3;Mean_Slope_HbR_S1_D3;Std_Slope_HbR_S1_D3;Mean_AUC_HbR_S1_D3;Std_AUC_HbR_S1_D3;Mean_Max_HbDiff_S1_D3;Std_Max_HbDiff_S1_D3;Mean_Min_HbDiff_S1_D3;Std_Min_HbDiff_S1_D3;Mean_Slope_HbDiff_S1_D3;Std_Slope_HbDiff_S1_D3;Mean_AUC_HbDiff_S1_D3;Std_AUC_HbDiff_S1_D3;Mean_Max_HbTot_S1_D3;Std_Max_HbTot_S1_D3;Mean_Min_HbTot_S1_D3;Std_Min_HbTot_S1_D3;Mean_Slope_HbTot_S1_D3;Std_Slope_HbTot_S1_D3;Mean_AUC_HbTot_S1_D3;Std_AUC_HbTot_S1_D3;Mean_Max_HbO_S2_D5;Std_Max_HbO_S2_D5;Mean_Min_HbO_S2_D5;Std_Min_HbO_S2_D5;Mean_Slope_HbO_S2_D5;Std_Slope_HbO_S2_D5;Mean_AUC_HbO_S2_D5;Std_AUC_HbO_S2_D5;Mean_Max_HbR_S2_D5;Std_Max_HbR_S2_D5;Mean_Min_HbR_S2_D5;Std_Min_HbR_S2_D5;Mean_Slope_HbR_S2_D5;Std_Slope_HbR_S2_D5;Mean_AUC_HbR_S2_D5;Std_AUC_HbR_S2_D5;Mean_Max_HbDiff_S2_D5;Std_Max_HbDiff_S2_D5;Mean_Min_HbDiff_S2_D5;Std_Min_HbDiff_S2_D5;Mean_Slope_HbDiff_S2_D5;Std_Slope_HbDiff_S2_D5;Mean_AUC_HbDiff_S2_D5;Std_AUC_HbDiff_S2_D5;Mean_Max_HbTot_S2_D5;Std_Max_HbTot_S2_D5;Mean_Min_HbTot_S2_D5;Std_Min_HbTot_S2_D5;Mean_Slope_HbTot_S2_D5;Std_Slope_HbTot_S2_D5;Mean_AUC_HbTot_S2_D5;Std_AUC_HbTot_S2_D5;Mean_Max_SmO2;Std_Max_SmO2;Mean_Min_SmO2;Std_Min_SmO2;Mean_Slope_SmO2;Std_Slope_SmO2;Mean_SmO2_value;Std_SmO2_value;Mean_AUC_SmO2;Std_AUC_SmO2
001;001;Valoxy;Isometric;Isometric;semaxone;VL;20%;5;Dynamic_ATT4.6mm_scanner;Applied;S1_D1+S1_D3+S1_D2+S1_D4;5,131698140096831;0,6357054009064947;-1,0746978904269133;0,4332785282240367;1,9041069393139516;1,2334230779696052;10,569241768061788;3,00492138047325;1,9442043345971893;0,33837046690533923;-0,6057195337356384;0,33842204545512045;-0,7395629626052365;1,766549342404922;11,627737335727511;3,0048270897025753;5,734938188738497;0,8644113423312437;-2,725544103595843;1,0243415704410141;1,6597345624543138;3,4194427962241503;16,88789196193541;6,025578200456569;4,531362110013559;0,5374760828926171;0,16201091601943868;0,24190855635327693;0,26489478878055345;0,7591747985536224;17,250726759181934;2,9753000262386733;3,4981175349890643;0,9093227047431336;-5,1373799260852;4,312784665115169;3,0535998702051863;3,8180837565280332;23,19214855041647;12,555301594084927;4,111173662500116;1,4298739449701028;1,5192576620177007;0,4817261971743171;-1,7905112100270038;0,2646919629231708;26,739993274367833;7,559449833206971;1,8386779627515952;1,3807983355771678;-8,947353074386623;5,901669799874556;3,256215018621769;5,026010303562138;39,15637029938931;25,007891623371922;5,333323653666056;0,4576784533704424;-1,6541768723984211;2,393502901523634;2,8077584918794694;2,431338082997903;24,5155811696957;6,369377650033655;6,932899599336136;0,6498758469563696;1,241461541544996;0,29292077823494456;-1,5871390437862494;0,376130383903761;48,23664382761491;4,266719038783611;-0,08817664375518755;0,32696532332792416;-1,6046061738681057;0,3770004345217633;0,42415123662608856;0,16355696155955587;10,352104640704201;2,7256408435244546;8,490810733506303;1,01937637096654;1,4612239594695922;0,42221590825237415;-1,7985757420184416;0,4918357044936616;58,395288403663685;6,970781052566478;5,425103672353929;0,3388499946637295;1,013416617642946;0,33020125622488466;-1,1165691117471233;0,12670370736634176;38,07799925156611;2,0511033438474517;7,0396697333953195;0,672469453545189;-0,2975433113239749;0,6178022314816829;-1,827212367639889;0,18816570578193254;47,59318437996406;4,591407790942725;3,3023335201270063;0,35264088325248094;1,473397413434526;0,3945919339979752;-1,7185230901094055;0,40365027062964354;23,633428350157597;3,413658326218793;4,400898995273642;0,8427986915546337;-2,7205803335867746;1,1021358325401671;-1,0793895788511227;0,17831518173734326;32,40408268496901;5,470028516486977;10,174178103443401;0,7111420440701679;2,1080817971329506;0,18202079050433798;-2,307647144424194;0,5716022758445078;70,74095654747634;4,117695389688584;4,592511060983017;1,3157976257157644;-6,951592278639251;2,881354956802349;3,422242649519336;2,2905862553981104;40,88426606348324;15,16336186982454;3,649382288232516;0,646835097054603;0,4411037693209147;0,27251642537361737;-1,1531360548027423;0,4708557337515134;23,657630380129643;3,550159441261698;3,9124270396647463;1,4728034553147766;-10,42587286870131;3,6593844203130335;5,744372824651199;2,958555601772051;62,147655264412876;18,360204241575527;5,336735674456532;1,164623833029361;-3,493387206031078;2,087692202767007;2,7083038051195976;1,840414763377127;21,64313424512346;11,123963373166392;0,9917842758930823;0,4942909578426217;-1,8739470063563484;1,0657974305467421;0,3915127417629917;0,13510148045470857;10,644388873031954;5,893757809416299;2,1602942110207293;0,3474359774541707;0,5559795045350597;0,15723958281083178;-1,3745636406531543;0,3832654468087152;14,320704235516043;2,046817212164307;0,30986772373253435;0,6130655178619218;-3,7591375719067712;1,3339152042782831;1,870264733536485;0,5971435807988258;23,093666053585864;7,557228924236317;1,7073328867535733;0,37076047901833903;-0,2329173939184578;0,6978130607080782;0,26855259169070894;0,08960224768912498;8,44958353129977;1,2262016422538664;2,363411677480426;0,544877993109413;-0,3350184165186982;0,9391894640658137;-0,8304874727444087;0,33460398387725204;15,112652244160415;4,465764637931858;1,3187245733396962;0,3332938482689336;-0,1750740208314066;0,39065662137236795;-0,4915636095769207;0,20564418023724754;7,581177194814418;2,1366890250290287;1,9495857509863597;0,4508637366487827;-0,601935235312889;0,6452577342016065;-0,6297208755727606;0,5514444035639198;9,020596942006616;4,009544784297761;3,260081644897626;0,6710935961945772;-0,24891701863262145;1,1292140243140611;-0,9286311151323318;0,3680937124306381;22,2425951731716;4,99330737317999;78,24881147265653;0,7828785454329077;75,5541359916987;1,5094779146958515;-0,19252208364899123;0,799978647632049;77,21214275872809;0,9037072884038904;772,0735290445429;9,063462975618775
001;001;Valoxy;Isometric;Isometric;semaxone;VL;40%;5;Dynamic_ATT4.6mm_scanner;Applied;S1_D1+S1_D3+S1_D2+S1_D4;0,4579632401405955;1,0566174189770252;-10,269750374921326;1,5335183288902021;8,101818669098694;1,2181075979800047;56,317173597027264;12,789396766112443;7,840330722365539;0,12614856214654513;3,126374023358352;0,44942207208714385;-1,6149424108835793;1,0201505222746936;52,16031693048781;2,1508387952381667;-3,4865099084735425;1,3177251072152019;-18,1100069943728;1,6054764556222516;11,203637438698433;1,6585683461901608;107,42914523733286;14,877985124510118;4,422729624814707;0,971058136706865;-2,7112639934024667;1,3540416609378298;2,3887027319466454;1,1897632589416256;24,142582018427788;5,755637579712622;1,787666645538048;2,3604930463388714;-19,653006390892465;6,676254684407992;10,633846532766857;5,842214519059221;108,92910324977325;36,90211733788458;6,219046719751813;4,362284896807043;1,6912671873749023;4,440173004335134;-0,28247373602834436;0,9097971883689154;53,60612999587446;27,511408355350696;-1,9919477929227511;5,580534180226548;-25,527409759368716;10,446739547991907;7,496164443158058;6,322717276776086;150,3005547726803;76,4528104816886;6,462078300338095;1,3634921388142647;-14,84026617010191;3,8081892726617257;6,762561224537038;5,044707684829586;90,53443538352147;19,223996584388416;10,049175370789609;0,8214699526101203;0,3598893289771634;0,8268311928600149;-1,228663711810476;0,27680896318204534;66,41801006525384;7,766654921213522;1,019312088158951;0,5683626209937653;-5,3405279952069105;0,7187594333312608;0,8138376297664844;0,25009586590503424;32,35575404023204;5,119935604736548;15,35677248224585;1,491684302514246;-0,5977029322079697;1,3904808997897156;-2,069614137801394;0,4115762023328543;96,25402709406596;12,36663665447806;4,965221855424194;0,3748278380482422;1,299911863811909;0,4055976219590304;-0,6428638276049031;0,2373164895296879;38,4148735633048;3,982592139247461;8,270946963090221;1,9541275681063355;-1,3480543853179292;1,420383939138887;-1,1240128089936792;0,09206216533800327;49,47180244591994;12,372102617314422;4,189587554986897;3,618459557602879;-1,4904817252913696;4,349886849872887;0,8793935367037704;0,10168833909260344;41,15347135848653;12,31698409484254;9,740081540577922;6,296703332558189;-4,763496975223174;4,813582030217095;-1,6744334909701748;0,14624862556710794;61,774465165743734;31,516382712189138;8,06336909897224;2,5257059650216647;1,5434331265775931;1,7589824117539679;-1,3809233006865924;0,3816035628324021;59,98218677803152;20,48403742835544;2,940922979719508;1,0528374889905519;-19,085124413641186;1,5194329250894245;12,770134046300305;7,623654709636254;109,374840140001;11,743865854169337;7,376787610552793;0,11286871331486525;1,7348449819700165;0,14760535695492033;-1,320471248925599;0,06786983997424118;51,155956358176375;1,1874369803072953;0,2602078580185176;0,9439344095554119;-26,286721093296222;1,5499095212306322;15,197137883727908;9,065780266923023;155,57307079899522;13,262087094386745;5,631583174029528;1,1812039325100803;-11,926703542082675;1,5814507711341366;6,436046606395621;4,506458271110857;72,97150620188161;8,341759052453943;2,2960943363669295;1,3068280374459142;-0,5393428317120632;0,6729516812378998;-0,715583016963176;0,2782593159236664;13,255203997603767;7,541585629814693;4,237818015925795;0,29442220944007313;1,6520309671676021;0,159761511271552;-0,9176515166778823;0,6470242391063649;30,14851544356261;2,0583759723404578;-0,20314480589231027;1,1445647600203683;-3,644420334364542;1,4824328456652536;2,2834961555937268;2,454797735571081;23,5203989733845;11,904978232591807;5,378939220430197;1,5707433296155955;1,198081797724479;0,6842147861326334;-0,9191665868427743;0,36158046189169485;38,225537765688074;11,268391753018557;9,8440760775991;4,506794389743468;3,1301535623897436;4,420422448576019;-0,7387889447632932;0,15484780347946986;74,71079754190166;44,98879434863412;5,7280760179787205;2,6954035635041684;2,42753227187833;2,06991172235102;-1,3235847186194385;0,6378169715161452;40,356375902281954;25,1624455623997;5,883931197369415;2,145695636195604;0,39788516910270066;2,309351893367453;-0,8274719904276049;0,34862500870431157;37,02300950099557;19,898935623305753;14,201455703198132;7,202809545764021;5,852035059072669;6,574612202363158;-1,3381449859121186;0,32105534630713184;114,89924544732692;69,53940933938203;68,57478322913373;1,7941543398235116;60,23831669690496;2,311582976150268;0,6348124406757775;1,757087385371987;64,41827364061275;1,977723866010908;643,8922722747762;19,82657741639583
001;001;Valoxy;Isometric;Isometric;semaxone;VL;60%;5;Dynamic_ATT4.6mm_scanner;Applied;S1_D1+S1_D3+S1_D2+S1_D4;-3,2380841034872296;1,9889893021409815;-14,267718663426999;3,5014917145691506;3,4300068330987683;1,1875633337602303;93,81226919631925;26,207449224636285;9,50222965625171;0,5842741901994947;4,4432214157773045;0,6007952946503947;-0,2884062261297486;1,040112703865989;73,16317137849997;5,478229093844463;-8,769786929842466;3,01108929480712;-23,76565583031644;4,039781995679994;3,469690730313041;0,7543725883878217;166,97544057481923;30,861172817767333;3,6751790696258686;1,2027644547237706;-5,010346369903816;2,9017822133771194;2,3699942867491717;0,30659362119631156;36,43797860668961;13,963757422949815;9,68828249078796;0,5013776225108121;-3,931409571149623;1,835860928790405;-1,6377787227783884;0,379780167724295;59,97814361620052;2,81726867405374;10,00742332131303;0,4574703616643327;-9,086914226518896;0,4450367937834787;2,7971685003781963;0,17316760476940113;67,88530027520923;5,676688030773968;18,651634091687388;0,618614929578239;-13,511521385063753;2,1538891295084137;-4,685937821491061;0,4705598167185021;127,08192602695208;7,459813013830211;6,883269612498249;1,346275895844473;0,3904415355038958;0,9886089938133026;1,0007207476038817;0,21235392340696027;29,483354838809298;6,842926563296235;14,56261054567905;1,092037358782448;0,13706322878408392;1,1780403958680374;-2,116911730245936;0,9338177194511486;92,0205099078789;10,709349191466767;1,1732753735863715;1,546905079365925;-9,487637996661485;1,124866895227061;1,6970597258751539;0,7584765640159841;55,847794598520565;7,177370157342384;24,041805132426056;1,650068191921003;-0,9319074848060016;2,6866492420290737;-3,662631933429128;1,6364855045875706;146,2444714093892;14,773349772068542;5,554661807284165;1,4275451539051747;0,9936268838743226;0,49806135372854304;-0,7284276013632447;0,3150630713269348;40,838388586141775;12,278844526388946;11,799829916847795;1,7766168719749764;-4,273697892685346;1,3368296628070777;-1,9209651182667025;0,11378990506250831;69,98959129160544;8,974595176717921;8,67245400077832;0,4489818684730355;-8,872536287822234;0,34606562395083756;2,5885507795963334;0,19861556756145632;62,1262179538097;4,779808669501757;20,656266153620727;1,7403907254501323;-11,876410919006293;1,861298537159575;-4,20997111695483;0,2912029811075095;131,26539726256834;5,740280733107092;6,451175568517817;1,0343575650197614;1,841621458710188;1,2221233175786501;-0,9487675952464574;0,8583142971557544;35,657215836163616;15,039701795334894;1,2501800761381072;1,945668167885062;-14,093423720535139;1,0692562290257077;4,796561443678582;3,625075148615904;84,92218478694049;6,7664034684860495;6,150109481608971;0,6046919286635278;2,5802964752282596;0,2133210364111378;-0,8309252655454722;0,18697766804274168;46,75660353158362;4,977231623011724;-2,363504263381535;1,8940168211709478;-19,855312934283905;0,662105034679256;6,2120322443733995;4,797568682586549;127,10059849386862;4,474766448599582;4,936412045491344;2,025853344627901;-8,746048713041267;1,439171381377488;2,488998825131728;0,33644247898511476;55,205660296676264;5,5962822279927895;8,922866475900758;1,6488729924795493;-0,8313110661906778;1,133218874620561;-1,6163028581663088;0,5559747456129941;59,35019835738471;9,446991499682722;4,547697826643896;0,8991609191540613;2,1716299940891224;0,49059971834510935;-0,06824446293841653;0,4986973048493691;34,02524744760546;4,700730400169222;6,003193382883421;2,419121597609117;-3,857379059767927;1,746290862994477;-1,2519320012817796;0,3844663134948749;40,150453397767684;12,590859247816814;12,762221441726066;0,8417515873579221;2,1010248715070112;0,8509872851322382;-2,31325209609478;0,7212604137587064;90,18827292309152;6,560308685796447;22,699459711342435;3,5137793396105885;-0,16454237600368807;1,8018363675406555;-3,321000327420176;1,1582023754242903;150,38777819034243;28,25154516972086;10,687209209744333;0,5813070641959088;1,9959129459444689;0,4042186480087848;-4,3365321430746375;2,4987292575741655;73,3012626254734;3,687134351981282;13,64658713331188;3,802951848708529;-2,7750094399433074;1,837334699515267;-1,822704937724708;0,2410440909547018;85,57543283139702;26,108168282229105;32,903952590917854;3,483328217468628;2,2818312530343556;1,8045660100633423;-6,618157757224708;1,4643789749128269;221,6037916958926;29,919521841937005;68,00949442653774;2,5222872863456196;55,076368149606495;0,963011747678252;-1,9609465166014988;0,2513277227994049;61,081707615451464;1,7256439576408955;610,4412881333501;17,29463976601964
001;002;Valoxy;Isometric;Isometric;semaxone;VM;20%;5;Dynamic_ATT4.6mm_other_session_fallback;Applied;S1_D1+S1_D3+S1_D2+S1_D4;2,6378024250831205;1,799664647490088;-2,562290033451198;1,406503404832415;-3,50455421505922;1,799505227579798;18,993102490644453;3,6494245275110107;2,3350356956998026;0,855653887481893;-1,0344332634957047;0,5701253660673358;0,9429187134622327;0,544546273622008;13,432540767421552;1,685288514922193;3,39055737406577;2,6027425619261537;-4,7108633693347794;2,2231702079232223;-5,146454047942928;2,563870266572343;31,373995940448175;3,733224664616205;2,012898260616617;0,9746823266332686;-0,5142088583251176;0,72426296401844;-2,8557922018249697;0,3601672412855597;8,846657378439987;4,659746140281717;-1,8053595711854697;1,7404134870612857;-7,245445474418562;1,8305294156339709;1,3845785820373908;0,6442367991375672;49,603518236939124;13,489667332110345;9,236765610690464;1,6485543207301452;2,630170694653435;0,8911119375073795;-4,973727921557248;2,034960927222;59,35615709897151;11,296037329936288;-4,7738901978474235;2,20817115253958;-16,32940257709704;3,2219074102257306;4,554827389625143;2,837441376651347;108,16612031214626;22,37884191241789;2,686405172531412;1,3461360638113355;-0,3256941871884398;1,461623296524961;-1,3402026036933918;1,8455643856635007;15,008075009261342;10,162813019252711;-0,2455419183165259;1,3226724256875857;-7,156233473498536;1,601173936087506;1,0988067776191521;0,5039752428700082;45,68226489465984;10,598542763788862;4,808847236723607;0,8665815723410956;0,8101934706165999;0,5310665576590742;-1,3052981756888653;0,5340401528231442;30,962387260078287;6,4205061730471815;-1,0745557831156551;1,703921390521223;-11,68402848949906;2,5498768608856035;1,9083839613069398;0,7440757389703665;76,02319421045301;16,86453716744507;0,8532688617281401;0,767160591918128;-2,802002940484921;0,8310744988031867;0,4464196006796949;0,08611301197156891;16,896698607361092;4,3845151433488345;-1,9254310224168443;1,7765664977108033;-8,504476013960808;1,8356061614010935;1,729675321329528;0,5345574553521176;55,68160189253916;12,974427820175109;8,566726911109573;1,967630327585062;2,2414478277828223;1,1785891995565505;-4,8393524828394865;1,9351942470449144;53,32273263827731;14,130203355499164;-4,271433705095421;2,2753959667436585;-16,866834775955994;3,422230392344095;5,121473989480437;3,4979893805277387;108,06460999228139;23,584007271995183;1,2959829313464821;1,4890274408106225;-1,291086024887244;1,5289869075971854;0,4685842614885427;0,15244771339511026;14,460792360192817;8,981859726085217;3,205183939555828;1,2943024568651589;-1,0210294188749938;1,606154380382577;-2,073849330343695;1,8229015366752324;19,985877375084794;5,863612371242326;0,7646605324103415;0,37372013616070937;-0,6310619661056702;0,1777726582901036;0,20242064188830514;0,05791480006597449;5,080027883776983;1,6954633090729214;3,6090458587298357;1,2463519714896647;-1,7034954873506798;1,9663372349317179;-2,2798457823721643;1,726225082235859;23,9948623160762;4,709592734833026;3,1993987751263684;1,1246667613164025;-0,3580114941078173;1,305915607757701;-2,5092128332440944;1,1977746458222471;16,691730660529025;7,0637153100296315;-0,11824421791424392;0,6203619106756455;-1,9125910549616834;0,5183312022625016;0,3477906296484984;0,36916324620858326;11,14825620913907;4,218211021913798;1,1746791922446278;0,26998453177434373;0,111078676097276;0,18563686918866343;0,13727810353427536;0,026888954347848402;6,981159883250065;2,271534462600205;-0,8051822280307854;0,8268718248975122;-2,856885902781316;0,6656409895012533;0,2149066282592517;0,4583245857639058;17,15969352474046;7,45959464807672;0,8168981601017267;0,5390688088764559;-1,1985546777913525;0,33815138333200745;0,2694122630823432;0,05772054502061304;7,408941141732122;2,5525519123751637;0,5014218528454424;0,9675299911023867;-6,059311174118033;1,5414306148137893;4,410778107669669;2,0295121008198636;33,47853798195734;6,922823050758311;0,33455826149904566;0,35624664847013454;-4,764417145781978;0,22233419384102582;3,166723763225176;1,7303731730070708;26,988636293653588;0,4917738816176038;0,6834828071701622;1,4562453315411932;-1,8016069818110387;1,164460888832062;0,26330438246600263;0,37189102459204076;14,350152626425796;1,3347527386164793;0,7377863204281635;0,7888132097366537;-10,756119169914072;1,736139509213451;9,103630191630636;3,184765476893562;58,27446674828161;6,049860533546703;68,0885211222061;1,2167586905381766;65,49708847860038;1,285889811222511;0,09996301815912476;0,7537111405282035;66,92610547412644;1,2199293457693052;669,2027805104792;12,21197171298673
001;002;Valoxy;Isometric;Isometric;semaxone;VM;40%;5;Dynamic_ATT4.6mm_other_session_fallback;Applied;S1_D1+S1_D3+S1_D2+S1_D4;2,646162166760191;1,1349690288712098;-5,310962244196295;1,544284184591482;-1,1483947028537258;0,11750166205162742;22,64374778661491;4,784917472793939;4,926421270821133;1,2855811461686053;-0,41708691213001314;0,7742107663407979;0,7582010006103264;0,07524195630523565;26,25748314737051;6,029791646079632;3,042124108895988;1,6389542716342291;-10,176598734207039;2,7813473717826884;-1,906777665902617;0,15040363095625994;47,49931744059241;10,209481131633337;2,6882053882373027;0,7337559868849182;-0,4848239161524427;0,9333948658102083;-2,4095242792366807;1,6047602363627864;10,710040134937373;5,150016408348387;-3,2475514216435477;0,49016263973093177;-14,630631749931556;0,8653436037240257;2,7392202058992776;0,3585389067522331;94,55577898209008;10,836546061247255;18,233434908923613;2,2867245751261525;4,4362678024487705;1,198200942656739;-3,3738259964525383;0,7417912370059814;120,57133534358518;22,125603407830592;-7,738307420114663;0,9832706591146624;-32,63506251336664;2,9559276622114035;5,89311185080378;1,1956728924094358;215,12711432567525;31,045207641299847;4,714974645580017;1,6781543818174132;-0,019748441305784858;1,4211916505336817;-3,4436987474894267;2,4586132734750854;27,409020087641476;14,070808195393495;-0,8835964443114923;0,1603762465434661;-13,473862096654068;0,6252978577416104;3,009470205944564;0,2840027985079079;81,86683650788784;8,5556417865378;8,31015374048139;1,1754635732280416;1,619239979429004;0,35383874656367986;-1,7876210264365215;0,48173422198711296;51,247952608129324;7,968083549634902;-2,523035123042315;0,4684155474877136;-21,38238264161335;1,5367604127558179;4,684952185217533;0,9384261729123395;133,1147891160172;16,122721600408006;0,8062112522900357;0,2837834024581684;-5,897724662844054;0,8043923458383749;1,56252614795623;0,20803878873032883;32,946191131786044;3,293980069879373;-3,12140984468965;0,3928661480161987;-17,78434467384291;1,2109311434582426;3,317875744782384;0,6138017036186381;113,56162202690057;13,805402534966065;17,354423657960336;2,295679492991814;4,065765771136802;1,187215185225536;-3,3354258767173413;0,7455084733579533;112,49403495340331;21,567433201486736;-7,187175615826452;1,244358667699563;-34,271585249654954;3,1903631734086892;6,401794974121489;1,2651265234931852;226,05565698030395;34,067541075322666;2,934987700014114;1,3366747687969562;-1,8445213267489209;1,559718306096447;2,943169657007292;2,221413987194114;13,854498672696035;4,1200963075597645;2,180315977336303;1,0029567439049516;-1,7614598407211797;0,7120766038033567;-0,49442870111006415;0,11054608389093956;9,24014580661974;1,5224871143812588;2,099961167519429;0,2232394353765357;-0,4738346486102564;0,45662545851501835;0,3822845519847304;0,07361539377072053;10,936817677043091;1,059387290467223;2,634317888714163;1,4176722833255573;-3,525202102491316;0,9213998276252418;-0,7537196249128473;0,18487861816368298;15,362980829192958;3,09241656981408;2,868142714321329;0,7358789510510607;-0,013217143101206651;0,7599717691556245;-1,9009008420669715;1,2433959905003136;13,816105556863068;4,6908644458384545;-0,1165683620559727;0,5391712729103175;-3,441113682264607;0,4076142368633741;-0,5425130556513045;0,0718579920489428;15,50666089744542;2,2103627448376106;2,9429500091831926;0,3967537779682333;0,2565760053384758;0,3786356065875868;0,4244797392701435;0,04739820462884179;17,342030070388255;2,8206764496701977;-0,37314436739444845;0,7042227831468401;-6,3172230746234135;0,7265740906619574;-0,9581203513812977;0,09762041116534245;32,54619301890717;3,755937964445208;0,9621450234043316;0,4271133405398563;-0,6529004337598766;0,43506754342035125;1,382990131502487;0,6155139440449268;5,030687143047517;1,5386500869244437;0,28508447714932345;0,5072993170595833;-13,231207236494338;0,8421176140924335;4,762400818162024;1,1755227075135108;73,70753542782106;9,314679406814241;1,4123517852407612;0,2437494917118125;-7,52328452243125;0,2515965547575151;1,4372150637771208;0,3448519034588392;46,66659369615258;3,7454816426109954;-0,3658986060015026;0,22541213295071783;-7,153251756601558;0,898847412341176;2,4563399651361517;0,44375432702191403;32,17334172598167;5,244938240258779;1,3242451670372568;0,7414411026259173;-19,892461797100715;1,0756526588303497;12,939776672748522;3,649341010624793;118,23747599649141;12,66444123810131;64,62130390152868;1,6891017590826685;54,12179164400625;3,293548678981531;-0,6461643864398517;2,010702596787682;59,42786955192031;2,490564335400538;593,8411951552177;24,996736105285116
001;002;Valoxy;Isometric;Isometric;semaxone;VM;60%;5;Dynamic_ATT4.6mm_other_session_fallback;Applied;S1_D1+S1_D3+S1_D2+S1_D4;1,477940081048763;1,1311468770306476;-5,790295489836527;1,1682006429480392;-0,9718073026183491;0,1191341113681545;29,979580541253103;7,424043707538992;5,6452205724270605;1,0457113676045253;0,07346266068964524;1,2319929580567714;0,8114650505947048;0,0954617884051332;33,79054210415125;7,873149144124293;1,404477420359118;2,234892582438713;-11,382491485176814;2,0351444354539496;-1,7177814746164437;0,1604899854377598;62,939135724322036;14,00857205243474;2,3480410813282058;0,8554720751672219;-0,5257878894094057;0,7215597938952132;0,5519993562217411;3,429392862678268;8,967225104709254;3,105850242287279;-4,6162668644744045;1,3956729477705896;-17,470462305585407;1,5545165682187059;2,812754181013376;0,41135061830859493;118,509354161244;14,925319937548228;19,963883462405175;3,257072638980527;5,4054137733826835;2,4681800539563525;-3,665466847336816;0,6691937273889866;136,85794275942018;31,29825084812141;-10,02168063785709;3,710685595971236;-36,905755637387855;4,61130697951177;6,100366685533559;0,8260726970366427;255,3672969206642;45,75191161995099;4,180706000267217;2,0458939601373234;-0,3604554033890218;1,3746055799750203;-4,889950609275107;2,0491083093380067;25,012364873811418;5,325406819847873;-2,0430026124036664;2,4286400994504436;-14,19781076101;1,79936827085981;2,5782292871549757;0,4224879832573417;94,06324044255751;16,378109097585334;9,35727630454906;1,4460756241467414;2,474138311940635;1,279595977073287;-1,2832169951329813;1,163210155353683;54,06969596657852;13,330464296589243;-4,628428407297145;3,801496754579676;-22,695381762380112;3,054997522704804;4,692173044915148;0,46668666732224484;147,99288495159604;29,398694433301575;0,54394824386422;1,0731510310899965;-7,109322006821708;1,2160704806351907;1,6386681016280988;0,27787544416529003;41,243667250750455;5,951503901884615;-4,478606146368153;1,9408963967791448;-19,528167670866193;1,5990223640796595;3,3401538439363825;0,3361070806747571;131,1586195404483;17,53468695537535;18,655361065388007;3,491919195347849;5,326222342114489;2,7942309517254023;-3,5183909610241764;0,6555305913972415;121,10323863078357;29,507956786929004;-9,804828488482642;4,614864437968243;-35,95436278710573;4,424903817040116;6,116967186542187;0,7375325292324332;252,26185817123192;46,05764596550697;3,835027243972553;2,2112950692698115;-3,194135015622064;2,0567509329214486;7,677991793064078;0,7396129681941819;21,093821537894378;10,350302165542521;3,2676224924910806;0,7982835395357163;-1,2869143056267962;0,7285913016755962;-1,7932996339895269;1,3507306536791361;16,6569969088121;4,970556349099604;2,2423812693217204;0,366807088358324;-0,6021118759129144;0,6466057711909434;0,41242435747891004;0,08846193511699856;13,024558765873644;1,6493898842186863;3,678809068039913;0,9703802691057043;-3,359813347433301;0,7615513815815255;-0,889750940250107;0,15213487792232447;20,231905957943464;5,721930518686362;4,688478816776414;0,807528964266267;0,5189105761639616;0,7206748872505538;-0,14945314638003898;2,6049030629558665;22,43000541928115;9,384795878641267;1,5739732913167996;0,6028686982229995;-2,9111605775092895;0,7848991119498471;-0,634387069495036;0,10608518410568786;13,757010945336138;4,157015909887067;3,332108731787675;0,41190298462169656;0,12208394354597449;0,6576368234974395;0,47754953129201977;0,051900504062225156;19,829762684171186;3,121627041955717;1,451889347770825;1,090301840566189;-6,202528019189803;1,0493328226647964;-1,1264408177633156;0,10649398520191475;29,01117969659169;6,422420225426247;2,1974121799321176;0,6003890140796334;0,21485402547759413;0,6417131471415877;-0,3024638109653724;1,4277959870836237;14,348878220299227;6,089041728929589;1,0672797843986406;1,2081915130292482;-10,416080006580483;2,2694784482640706;7,553552769130336;3,7045229667845656;59,00129793560397;17,832929676049595;1,6814706739750886;0,36190925617198116;-8,151813984712724;0,2355808917718491;1,354948393476744;0,03269942550686972;51,5289726745494;2,64147335768217;1,7373548770478227;1,8727927812171445;-5,163081374079923;2,270205343586527;-1,0805864567153198;0,18091399360070307;20,418164018399654;12,395195196065135;2,5345771316623384;1,1201050997438902;-17,200683994515167;1,9736580249043625;12,236659572742063;2,0717576784793046;108,31546161611541;17,284247908007405;60,989371748424084;3,8379485225891448;47,68456878494508;4,487272647765399;-2,084692475313654;0,09809788720196887;54,673459272674904;4,342648930021725;546,1841516923738;43,47626373021342
002;001;Valoxy;Isometric;Isometric;semaxone;VM;20%;5;Dynamic_ATT4.7mm_scanner;Applied;S1_D1+S1_D3+S1_D2+S1_D4;1,834388851031984;1,2438663008078865;-4,957100043849138;2,56882110739869;-0,7828590713029902;0,15910688272516182;22,77944263374149;3,4525159635159413;4,002900748188831;1,2047579634281653;0,7374181920903833;0,45452058047238164;0,39230327073630733;0,052381886629202415;23,491599624222044;7,42118651063609;1,073762499979215;1,6841928725960023;-8,575005165270309;4,1713406672281215;-1,0421281194025271;0,23524154259329572;40,10889297763807;14,32759864484168;2,946817252820656;1,1595375602275453;-1,5456245640001982;1,1386517184690932;-1,1961011382585656;0,5997220088655895;20,753495435073425;5,925464895526989;0,30731254371196715;1,6138632468852538;-3,2083568866810674;2,150898875556197;-1,544099654845496;1,0093939553099112;17,21150226875844;9,622323181111273;3,020892820287537;1,593112384112913;0,2600376161469952;0,6840379057771403;-0,15657804773034675;0,7929744813072016;17,54812407047792;8,845692217633022;-0,39568346980130914;1,8843308728887918;-5,7114147419066885;3,8284488466984268;-0,45864183238714434;0,7317277219541611;32,730822175338936;19,019143109307453;2,514521119184805;0,36352849832170814;-1,2349237986043693;0,574433692449842;-3,5482860802741216;0,45447750398299014;10,58264200070673;2,4857608785530982;0,7392807641195018;2,349726240023986;-4,97057048010277;1,2214393504858945;0,890307443437506;0,2641891406787352;27,922318385907896;13,090923015441316;1,7710866176138194;0,674163915632988;-0,32901606584530535;0,5601652881174146;0,6055949952730458;0,6996928475181458;7,806715923674223;3,7431889779376015;0,42768663166657417;3,416811187708889;-6,0012760839509;1,4922730595791243;0,9943727643335116;0,42417267371605594;33,7319176778996;17,882273888968992;1,5517535186555007;1,5855828066560027;-3,9589607855869446;1,1025464448678572;1,045241307898821;0,21169316497423143;22,6230086913491;8,402210379051992;-2,3754563588435644;3,3302119481651014;-5,620055658855341;2,511501887009726;0,41281191194562317;0,3188412873508105;43,36034835962107;25,21981858066877;4,000980346017754;2,235305854321321;-1,1537487914349192;0,7730437476163919;0,6278940408453642;0,18240775656211253;18,041029971423512;7,175768758898602;-2,710303329701978;3,4031808716039196;-7,90458881750178;5,167357194265738;-0,1473628476975307;0,8209370851233354;55,02675289946552;37,681645442552245;0,9196575573776572;1,1572715653228143;-5,95772948878758;1,5158418267681777;0,7186878935121342;0,10710679547389049;34,3019916602308;12,181602488098319;0,8651009194748029;0,6551822272744139;-1,8052359329506125;0,6117696731701304;-0,9038250731490495;1,0292593995125872;9,957334920308757;1,994859112148931;1,7736641478662456;0,39342363924486834;0,7985232990713841;0,3721769113713311;-0,46317327813835546;0,5463121734386617;12,658415661270965;3,836459538183878;-0,15875636688302247;0,7623742991501046;-2,864470396614526;1,094443320834574;-0,3433556886068699;0,04233080773578613;15,62384013944982;7,630576660752953;2,378538808912528;0,7195036403195613;-0,851106944908279;0,32704415415537114;-2,194923156685468;1,412349246037188;13,983805498710215;3,7658286670379026;0,15814506367781925;0,28788301573508496;-1,5045306192497043;0,734125039795724;-0,4319690830102993;0,24671593159999602;5,877211269414052;3,4395403766073813;1,26681014386786;0,44517547635804405;0,1372724560249712;0,11339227631339653;0,14984808352317178;0,030292961773244427;7,136387392017156;2,57859536145923;-0,11687666573370067;0,2684026066315764;-2,6750875914985928;1,1842857740744326;-0,3725966667302398;0,15334037813263537;11,516954501195016;6,888939974479413;0,7772300554371437;0,29788135610214994;-0,3889094689113743;0,38789817064302634;-0,8302312274280137;0,3131570986090945;4,25777005969031;1,4370907611288513;5,341538302141029;0,9363531800027356;-2,6803923167517754;1,6026767418078884;-1,7716891466275317;1,3730351572583328;33,41770477553232;5,055731207847319;1,9595333099090708;0,28401997905729875;-0,4103486609686057;0,3605310910472819;0,3052212817395224;0,03955497142539044;8,680692260071561;1,0092549907602049;5,588043157842558;1,0345820706647662;-4,379544123061184;1,8910673999798933;-1,4297118059220908;0,15363850398808107;36,95056608838324;4,141304121444256;5,6148599618260375;1,1765279779493578;-1,2120645409191158;1,4177645309274614;-3,909132631875292;2,657989403129089;33,38539208406566;8,120644204429903;66,58220177058105;1,9523809585311158;62,636675742571924;1,019788357266481;-0,2002676662073119;0,5366251411338665;64,58711397278923;1,3771877470768925;645,8339652114466;13,791625424945554
002;001;Valoxy;Isometric;Isometric;semaxone;VM;40%;5;Dynamic_ATT4.7mm_scanner;Applied;S1_D1+S1_D3+S1_D2+S1_D4;-1,6477592221711963;1,2662387550302376;-14,91284096121459;2,5480718111730423;-1,933454967520205;0,17714140213086624;89,38897855406898;19,156651152793096;12,811417387957169;2,4269684800863964;1,254468603537584;1,554591134282695;1,638695477085379;0,17292190899492696;71,7265449009451;16,387790175259262;-2,90222782570878;2,776157969917548;-27,46783871328561;5,31392928058785;-3,546162961173323;0,3392599799528883;160,811153518005;35,980889460785576;-0,01891941135492914;0,5518138202513322;-3,9425424852558644;0,41100488739771096;0,4200335081078773;1,2239754770934121;18,998332041952395;3,2639745188700156;0,30439435039562257;1,1893575902832383;-9,240157122615019;0,588690657522023;2,5965854598045572;0,13677255630996726;55,941333288848135;4,956286351020189;6,3868772491085215;0,6913866825314385;-0,31423858967711304;0,49085518012422374;-0,884372027865656;1,451349558814408;33,842459943072654;5,516072702063543;-0,3600648678046118;2,3525261843192866;-14,92443327872802;1,118152394968645;4,032206013013794;1,0246507173564599;89,22465648794176;9,27647515712089;1,6892285360901116;0,6432001940275636;-4,469655193471608;1,375389041564272;1,867964874090027;0,9108862189158092;26,44508526467602;10,002496116228652;4,516516278592897;0,7008449295354883;-10,32584379802501;2,3997513979948706;2,912427364851475;0,26384252451867;66,77065038587433;15,077220454676217;3,6231073487670225;1,219268531316206;-1,3284526035205424;0,6735025682515323;-0,9598815020437808;1,0903905699801033;13,800862169843777;3,6462357874859794;5,760974897515685;1,3412751023913894;-12,222966451812272;3,315010405105568;3,768456551056577;0,5833359869052621;75,91711835858489;21,902381951029415;3,286833991490954;0,3615843910354711;-9,063284257309034;1,450309628005496;2,682453921258579;1,0339730951067958;60,09946420002217;8,59503609131948;0,5927422683865743;2,225365198067951;-18,402305975048378;0,2817729275758055;4,824602598536717;0,7624328533004946;123,86324553802959;5,277365778248183;6,832824769908152;0,9887017372878264;-2,0801670372435845;1,1099078878413935;1,2093836748757292;0,10072515909760882;27,654183840740007;3,200311605929082;-0,6797727220958838;3,2397189110581297;-21,78329403020589;1,3397408476993096;5,7026872192244715;1,416328985159228;143,3535826919587;9,017219421058162;1,911318389643131;1,349058401197677;-15,534495356933153;1,294132669526322;3,6963582316426873;0,9659417409773162;106,40706577377432;9,93869232700845;-0,08664519144325925;0,3615906966159678;-3,400305333902092;0,43666244667641574;-0,49919922256361104;0,07663361782873536;18,100250311758334;3,158325911710485;5,201252250889074;0,777341179051514;1,2478787552428439;0,5742961186613711;0,5532538477301854;0,04919678327559424;32,7093059031123;5,724169834956118;-1,334523946686103;0,8490850934054847;-8,33966632530571;1,2454121477009237;-1,029761295591062;0,060581570156716974;50,67832891027375;8,258020859332866;2,326989339694991;0,44212793789546667;0,8175883265209057;0,49336824757304426;-0,41569639424546934;0,6175692804828931;14,781492669471614;4,364771883963024;-0,10983294270260587;0,4079624214868877;-4,732959507513135;0,5013972175009199;-0,6651700108765577;0,06135119540644377;23,030274001790247;3,8362988862262473;4,501551586551939;0,45713905115368964;0,04960553274879872;0,5310706734036038;0,601310745068879;0,02814174009928214;24,15512891895515;3,141898620462419;-0,15948705520831807;0,6938040663496914;-9,139246224870247;1,0399731745440592;-1,2464062597705388;0,09583241627164364;46,727517333788015;6,003351306716976;0,7076686537268981;0,31972522043279705;-0,5105044785513844;0,6624542917248041;0,24063069849770571;0,25831106003654586;5,246146232294545;2,793444775645284;3,0475152592137094;1,6464545744731265;-7,165014008996354;1,3280334755981917;-1,6715231120042258;0,24226622300886327;35,55909657889396;4,4258977513072635;8,530292425493975;2,035313801365614;-0,35933460586814797;0,9561711119681492;1,2698747023531414;0,3193627926578912;43,12737793075967;11,627915005374662;3,3589157091849935;2,271315787215947;-15,430270176018444;2,7469391949955027;-2,7544846512133083;0,5452307707316096;74,49054189683883;14,871320008460176;3,6942196158747413;1,7271379383056078;0,16058104216131985;2,160446242919661;0,2624576332730276;0,9876195503913785;25,818284551281238;9,94666239469558;64,39067395351063;1,860380593099641;51,8262153301871;3,9702125200818186;0,5771317984522597;2,776407485581903;58,45363922936317;2,6921416547725907;584,0244497822733;27,061406463024618
002;001;Valoxy;Isometric;Isometric;semaxone;VM;60%;5;Dynamic_ATT4.7mm_scanner;Applied;S1_D1+S1_D3+S1_D2+S1_D4;-2,545553926193585;1,822466271145105;-25,484681378089;1,2966142181560258;-3,102884247575878;0,21368731598655857;158,04954374167158;15,340081330475858;20,225071804207424;2,068714104081696;2,833300412797224;2,402949966043533;2,262787594906182;0,16796496994037333;128,95416479361762;22,818293387187413;-5,378854338990808;4,181818295059979;-45,5764820802357;2,8646968769824994;-5,421589602336949;0,3493102128327525;286,7732675267804;36,79817720751815;0,4761619640076863;1,0234815115576192;-5,73793491902544;1,851148921212837;-0,29651584463316477;1,0382367625258722;31,401498369459624;13,547156072902174;-2,2016141063444064;2,0752695792280123;-15,600813654446478;4,0414837826336445;-2,0061540209463447;0,35176241059969304;94,07958845851016;30,463015677261982;14,901350006046467;1,7681726546667622;2,1470822416026976;1,8442985368445861;1,8517382558218962;0,18375177186574146;96,07100899661839;19,07986768870848;-4,3509420820183875;2,308230443977695;-30,36160861068317;4,7828043122862685;-3,710909762616054;0,41497328707881725;190,05017515912823;34,333297063793324;3,5935341762686095;2,1279169612318336;-2,094859239877648;4,319815887911234;0,9144094917226022;1,0611266930721714;32,200119520693384;21,684961878074937;1,111979454795633;3,0176727218954285;-10,036571997114713;6,223850224829137;2,398354719825141;1,8790474427928114;65,99196326220348;54,608249783325064;5,072630052627363;1,76043641865174;-2,2984399173708465;2,2493923075414943;1,0447297235923574;0,17942796688609838;26,883257915875838;7,907303120840271;0,32185563365837655;4,610204305146037;-13,5601337215984;7,593122612321605;1,4407773172197746;4,040553979460229;80,24649925098814;68,21095707283699;3,1780041779965846;2,311783117168536;-9,738051085668815;4,348510307222991;2,573897834186883;0,9369711767830666;62,845610303116885;34,66650261281482;-7,890905080529651;3,6230141663666107;-25,09870215749539;4,335847490898071;2,8352871823918067;2,737619950950552;183,60365652290733;34,09155597843433;15,093639083551022;2,2769601681204645;-0,7829052057783296;2,2096162004496036;2,0617590455045387;0,27035222233297673;85,19737174276386;21,79682093420448;-12,074136318946325;3,3119452028284835;-38,899327905296914;4,636115159864423;-3,8898630447595637;0,383061902442765;266,0499341658709;39,30617349195225;1,7865825224113094;2,3911136429714146;-15,059858937259452;4,16009842861381;3,0628218330113297;1,3527845858695782;108,00857425041895;40,16289302593676;1,70315336495015;0,754721985740062;-3,9934500667642387;1,4810082064524999;-0,8670397232015585;0,17300641474987452;22,20053099119511;8,760124848152467;7,83371217983453;0,6071406404842091;1,8546314443732541;0,7416292306939186;0,7711017233189741;0,050614466639500505;53,51784267558007;6,774648151965177;-0,15147807942310382;0,6318641964829894;-11,661104986045938;1,2791781487937814;-1,5562797974422633;0,17085292209917158;70,43157665515324;11,33276832685504;5,337155915013507;1,6471872333497581;2,1886268876372053;1,648992451135493;0,4454648970314734;0,8083191651025884;37,42081880664379;16,330583535961345;0,7584380224338799;0,5652950343690194;-6,7529642260999365;1,0549351168682197;-1,0010287979119048;0,08210219751766612;35,942979663566305;7,916384468638706;6,24462092257829;0,40922296194841806;0,46628398115626074;0,7254056740997221;0,7552457971624496;0,025327982715248692;39,41261743212895;5,612955288174565;0,2921540412776193;0,8586824523632173;-12,939966811278603;1,077561962365151;-1,751412943961673;0,11237263667749323;74,10478001287697;9,102886429174369;1,5734561201642268;1,0884549758855495;-0,8849591791122815;1,254773234448021;-0,2434177337716413;0,5841887974929474;13,549845336656418;3,6895441824103323;6,943895635357052;2,4399714368472605;-4,9383284528054805;1,9395868358979909;-1,4899274637729747;0,5183123034616907;33,77887493598767;12,432742240898076;5,16032328965395;2,5357524275871164;-1,9615475705347152;1,1500565719427824;0,9196735410406986;0,2762305683113027;27,624883155819855;14,624197907772933;8,815997290059617;3,2829391100981526;-8,665569228886886;3,227228580233627;-2,1056985101125014;0,5326240304614303;55,25967939071281;15,194660565528185;5,530082396674329;1,7679402224505296;-2,2448721504350124;3,7473553035658584;0,32278318080693336;1,7720415175731266;38,28029860286517;15,832749805165701;61,71977629634207;1,8945774331788265;42,464488088952386;1,2921136260888166;-2,6518575191955147;0,19594846775681876;51,27147825531877;1,3848154679790972;512,0447767028919;13,985095050687775
002;002;Valoxy;Isometric;Isometric;semaxone;VL;20%;5;Dynamic_ATT4.7mm_other_session_fallback;Applied;S1_D1+S1_D3+S1_D2+S1_D4;2,7037668924325686;1,835459474013325;-1,4671361977850563;1,154201973419474;-1,2277033837764397;0,6749401747685353;20,701218764079144;8,937210443034735;2,002661717625259;0,5787019645539808;-1,1514927628964178;1,2165101899158026;0,37210963006204895;0,0441398350321857;13,28277872864733;3,306704253872615;3,4060150943604413;3,1747378826418955;-3,394074732295505;1,751024791102068;-0,904839466764775;0,30735888721608995;31,33490696488882;10,861265176455;3,0046067875629774;0,9004220478434098;0,30049983841659966;0,6006443630358305;-0,5095528125176709;0,8158985212402013;16,224143390954435;7,108651665766434;4,758714774122909;1,6071953821550313;-1,468963142157048;2,3710243021275006;-1,39687413670092;0,4007207190490197;32,899715527157916;7,565218381510046;3,2705798446537253;1,6826508289740547;-3,8093127142378487;1,292617236361136;0,7963720375865175;0,04682049275928759;26,10931018124736;2,8793613298811125;7,955105521294574;2,534486231573414;-4,739542986810773;4,003554665561092;-1,5916208818410817;0,28142706633997067;55,67744899904424;9,468304349433744;4,165601086975857;0,7338578679490751;-0,6095500952325166;0,47094073846973233;0,7669831429080878;0,11790411310627745;16,24771018767974;5,813685053106324;2,800592092121606;1,2962605521354345;-2,513110755489022;1,5619869462713696;-0,2878721485547372;1,3114592608111637;13,975549658688475;5,1209481406073;2,102668260471247;0,7647260985883498;0,0043383978604926154;0,551406002175351;0,014150345073734227;0,46114873289240077;10,275585840552157;4,2812743362372965;2,6933632264306397;1,770292822055123;-4,615062059552493;2,3011733761066866;-0,17291639949383453;1,6340222791704868;18,808030892042275;4,771554542434746;3,05869526880435;0,827978114175885;-0,4271479131038328;0,8669306976940977;-0,38331745876587797;0,9640439502367183;15,604369014746737;4,932000340344343;8,639884757671856;1,8787397141411188;-2,244421767082332;2,729105296225024;-1,532001970826597;0,37058716666924246;56,8457325210736;7,178768806708586;4,504486693432169;2,376409198819302;-2,9715868580175573;1,9471301075538372;0,8077174671848166;0,10892649699286237;26,542856297853074;7,123809484785147;11,450978343379038;3,484625399887618;-6,701960053067895;5,00856436641977;-2,3848896780465854;0,48189516400272603;78,42193921381175;10,058614805973548;7,145245334355049;1,5017602944075465;1,8736644174460408;0,8289661811775972;-1,8395323699570034;0,5050775920182515;45,27481482553642;10,65358548175889;1,3629589531419017;0,5999730886798548;-1,6653208538049014;0,29741649710409035;-0,37692063438253587;0,03783397380876756;10,23887577172142;2,091544563833477;1,3472335452830042;0,15965286557761887;0,43534108518507786;0,08929165636625845;0,1124287246701489;0,021818232206905944;9,744673305039527;1,0027314787312316;0,9056158534981609;0,6502513196984213;-2,9995362856054473;0,3815931882154347;-0,4744599639440133;0,042995473124389026;14,579430282973258;2,8054418411465973;1,83275404031134;0,551736223887971;-0,34041708512846586;0,299527882399181;-0,2803449114213372;0,045241778349974685;10,11448625655327;3,0537826950013884;0,41162420371562014;0,7952035654281611;-1,2555911133438868;0,3680818848076312;-0,005135255621749118;0,2326153360557326;7,646950586719865;1,9909010579944335;1,488664476526078;0,21546196323331915;0,003930864296144721;0,34921497424028397;0,18133598146110616;0,018775758320371965;9,662200050684438;2,084288197837967;-0,19641579810679022;0,7014532983737254;-2,418794293315242;0,87202417528161;0,14777159983507684;0,825383616698551;13,51755944703181;6,146311864162363;1,4878261082482411;0,6950693559714202;-0,5245846169203107;0,9248549041778438;0,1265401059149199;0,35134226076707115;8,322624026865798;3,823976780640402;8,22152966584656;1,741692835565304;-1,4333810475179563;2,5522212928127264;-1,5046342033594176;0,28782994663045364;54,32859094313977;8,501267868766341;2,826081896579455;0,6443841116343528;0,9268417981045267;0,9613143987141081;0,03037227005990143;0,3504707282955998;19,60242544977469;8,49081078861321;6,315497946875506;1,838029201673925;-3,1912264570176827;2,137009535062794;-1,4579709690018192;0,27941530419285276;44,31244155194485;8,390270758164881;10,243985967602464;2,1651602771814202;0,28278646492227094;3,037891481356515;-1,517063121624706;0,36447533015042466;69,30029229208249;16,878262983090128;72,00776648725481;1,6940145595279945;67,04896097028306;1,0973258093054947;-0,6210612528133801;0,06682839931753531;69,25410893200808;1,6443975090748162;692,4925411014975;16,491848249610214
002;002;Valoxy;Isometric;Isometric;semaxone;VL;40%;5;Dynamic_ATT4.7mm_other_session_fallback;Applied;S1_D1+S1_D3+S1_D2+S1_D4;3,5763633881260417;0,6766327752530202;-2,3567811107237397;0,3279316068505527;-0,7421666846710264;0,07573092328569327;20,850873952624685;2,9484912935788357;3,3053806571349313;0,24152836297871402;-2,3535215760540558;1,142993579294001;0,6200817166451666;0,10975334914629326;19,51375008198598;4,249251468349534;5,899435036892649;1,7069567592884505;-5,598213256162104;0,2309203221823077;-1,282022457766906;0,13881851463285436;37,81605155176376;6,240312326433262;3,4836171741772914;1,1144125614992944;0,21101703639614752;0,2743695312875123;2,3730402793540737;3,6789917893653845;13,730278853333024;3,898432664293282;4,4181218211877304;2,1626179838528894;-2,217321425967479;1,795434787246137;0,2195781725922874;2,7032306589912736;27,16712740512589;13,02166361950959;5,468875694475147;1,049358898406783;-3,1344301088377278;2,7762416412789137;1,0219881747976436;0,28003853941806356;30,076120360844488;7,904674316764068;7,21541047146035;5,1981080418841215;-7,61741075321621;2,8211159390719076;-1,8839465910343933;0,38504209512003046;50,80474811534995;19,83158110236977;5,779897958280445;1,401457890144348;-0,0053266807857953015;0,5942443639913666;1,1394573302263467;0,5442764792354454;23,665569200077023;7,232420756571954;1,7360485557929475;3,0566041535618806;-5,974043365598823;1,2173084813464496;1,4347216686512336;0,40001357179400515;31,26433728201552;6,817092154711559;3,990191669054215;1,022227811809083;1,3308246424747914;1,0772068362680016;-0,9215345116517142;0,9988226782250988;28,149462130264045;9,555479999635986;0,3068679428666957;4,179591540131156;-9,6674579490878;2,274325523373219;1,8544067831932043;0,4894523693740533;56,22936857686979;19,040264672608394;3,2592921562463957;1,906079637941501;-2,287662412475405;0,7789242440637789;1,0294396004609272;0,33439562681881646;13,36928212211879;7,766526104891929;5,697690429381626;2,9851724483238486;-4,659118971287247;2,02821552354212;-1,901942028410944;0,6067571247843409;37,665957472677846;15,090479362337712;7,86655435393393;1,131971867265338;-0,3791465049211609;3,9013510556521434;0,9545672364395887;0,351037088274559;45,80000070163065;14,112576822266956;5,00882797612894;6,806791894770409;-12,507519602599762;3,1069640455856544;-2,4911366769710304;0,7344384038955223;69,06249604332814;22,243857616023693;8,966563659098616;2,1299508516628816;2,2094855033555176;0,7479580274550155;-1,4637478638382162;1,7947371212035657;48,2154801422319;6,871033497640201;3,284626900510027;0,4963550930608282;-1,741206438951476;0,3262160704155009;-0,605894543886236;0,06721735704622994;19,884537352757583;1,3602854319702735;2,4516398661875973;0,20015137887382273;0,9020569747021611;0,3404902677494097;0,20518730617408365;0,035271891485780915;18,96146452756924;2,9753537834811348;2,316311849644695;0,8466127949218049;-4,16172257896981;0,4544665915637402;-0,7794970257138116;0,08476091617615082;22,61780483746123;1,9721805063531492;4,52244202296766;0,27019629367766257;0,6602060363136324;0,2701127918822183;-0,7851502511255501;0,2555706587724485;27,876778356658587;2,039654650384356;-0,655262794708956;1,1108208931037542;-2,489172031999621;0,5235369404417672;0,7360561473254339;0,7958333240844911;18,933276223613646;5,886910817644107;3,292331670052863;0,12485062346447112;0,5776797014775552;0,3167120851711549;0,3724082721911325;0,055932148842555714;23,558893723097945;1,729820825989624;-2,6002468656224305;0,5055820958362054;-5,444278897995642;0,7178788559443331;-0,04415188563214315;0,6250729916021831;42,00709960987719;7,424550557593588;2,431485050521909;0,9731674729987821;-1,494611619227299;0,5408705321992434;0,6414259660254868;0,09249084050879129;10,312400507383837;3,7446765228372803;11,246288156812252;2,211664672940409;-3,6802721908558227;1,9807266493020919;-5,039791005644796;5,191473689441608;63,95869438744853;10,022128369257164;6,936585996415718;1,4318090588423604;1,3010275882884283;1,172121512375334;0,9534548354135985;0,23710944792603333;42,06943784785843;6,349338758142685;8,205958971219449;2,4115911870042392;-9,513238193992109;3,309379531154933;-2,4984066351225973;1,1410951617565817;56,445952102221234;12,021933517917;15,171729209089662;1,9134970097485609;1,962682751051083;2,4685427511692586;-3,1518865111809955;2,0562969528612274;96,13868717143559;19,124255579174864;63,23515651879732;2,8244206870668127;54,11654171376608;1,7280373353436702;-1,6323331172890434;0,24205683275918943;57,15803285749439;2,279546438714261;571,3352019939891;22,855316437201438
002;002;Valoxy;Isometric;Isometric;semaxone;VL;60%;5;Dynamic_ATT4.7mm_other_session_fallback;Applied;S1_D1+S1_D3+S1_D2+S1_D4;7,043531907307513;2,319282384097736;-12,721295579712745;4,5963673989076685;-0,7565656655101232;3,9377626146291353;52,804160516778246;19,64644798633128;0,8516729803553634;1,7085559823807104;-4,106623059296808;0,7022739843893978;0,10853380941897392;1,1151876836269858;21,136017579606282;5,9323173685013595;10,713228616238093;3,0359653507971562;-12,924421026617742;4,826343244558348;-3,1068983748780483;0,5073307469707269;64,55428181378029;22,37738479206981;4,32539943838986;0,6115758703244458;-12,51817013280775;5,000288719136548;-0,8379071706168976;3,3601082890151166;45,03259100786163;15,291841607901038;8,612858521536555;2,5263706031285458;-10,015558282846648;5,918916241955177;-1,070896896029422;3,117185123857376;61,72805775822394;24,094576896536303;5,038749044101515;2,3377776286709477;-2,5098355748911505;1,7897288667862483;1,008457721975609;0,29142118505645087;25,470679682720593;10,209891009703133;10,868182548097403;2,949393797445351;-14,966002617711245;7,875992310716235;-3,475098030840742;1,002305220328885;73,68766727092843;21,77202883857017;8,317706494519314;0,7475520649773991;-5,484371968922779;4,73754497068247;-3,2822981747132376;4,5438429074911975;58,6309105215215;20,432021414911148;2,9792580043021877;1,202981499336733;-12,95903945286939;4,632124772006503;3,2985698029722377;1,3986424670685402;74,79098002424584;25,95934480029129;7,9003874597085275;1,9624531597369903;-1,36267094168968;1,9689348297994318;-1,5699184423647181;0,3297013050011225;45,427139614549155;12,524765807506478;4,290007902010937;3,0180987674778668;-20,71037872602493;6,628730086408272;5,063224245537127;1,827581248961662;119,73756202165006;38,126058244716475;1,7820049504126083;1,2160720485602812;-5,772530740762838;2,4537868254190696;1,873488667076994;0,7677448859996813;32,46998187085457;16,799794433391508;4,482721205925128;2,3253752519873734;-5,620402438197486;4,717579587069321;0,5631801796226478;2,168378901176612;30,807146238687256;16,080016528493992;10,86945709113057;2,855593429739132;-0,9031511034317783;2,404999965898725;1,5952312867124814;0,39958004069228187;53,9547165143851;25,126815453160983;4,959757021522568;2,987169013721531;-15,353818012417088;6,424839371169643;-1,3798888960122044;3,8440887487425552;75,11514456282688;33,1311504318025;8,547608677761996;1,27331880596097;0,9129869891289136;3,3066852695802087;1,3253535301116377;2,5695251512288126;53,76345126729982;11,638115760021526;6,762672675685108;2,243214706402769;-1,1539237852106345;1,4384864397332597;-0,9226173189232668;0,2015879605499762;35,66920737094411;15,767879066862026;4,772932660557102;0,8542012446274408;0,7738270490592453;0,48764335853570456;0,45755137290388437;0,06472626100069297;32,3988509922892;7,1779744238371395;5,9817655674530785;2,6005781303796387;-5,684933162577881;2,1352491329019316;-1,364470190491975;0,27071162636345897;38,751217972734665;9,65578377501389;7,974773868633257;1,8327684353239608;3,2299846824855662;1,0999789016183372;-0,6451550076504603;0,06469632221062131;62,12979479022236;16,23593292487122;-2,3355980934984646;0,9894430267590044;-7,663257642303061;2,31415089219423;0,14277184506559232;1,1184031730017003;48,89779086498614;14,036095311526783;6,541950833024851;0,9667731577918566;0,7825639793013888;0,45850823012931835;0,701273217877504;0,06739251499082877;42,95535169339699;8,780390305157665;-3,5906094131319994;1,5020510070992537;-13,074315356766192;2,8328237017301188;-1,3223599441881546;0,4535035693896846;91,85314255838313;18,001131924768536;2,8564510938059087;1,0458067665455362;-3,077703756078683;1,7661710342174257;1,2204919572517254;0,5015389886622406;22,65392070241882;4,877026932073076;14,824314523182613;3,2221461624672756;-32,745379684372274;22,819674920013043;-6,166173294560354;2,9039536585477537;145,86700418408867;64,95551826591254;20,707037785057402;8,159928972471468;2,5068980340329565;0,737111592847904;2,248732574618585;0,9524946286338465;98,07847270891666;28,07401796516557;12,262094103808277;2,695426229029354;-53,264331326557624;30,925074659075424;-8,287092619933421;3,9343684784174395;168,68438226998236;81,90679617169101;19,002013671596345;4,727390742903292;-12,308973444460438;14,854557306727829;-19,42144840054606;12,597131066193429;147,77904768550883;34,518834191836206;62,239723152857;5,107882360916414;46,90683275475254;1,5122196640799515;-2,345142737721182;0,7824153970313444;52,209479771025954;2,843045253028613;521,5343480373638;28,360739723914765
003;001;Valoxy;Isometric;Isometric;semaxone;VL;20%;5;Dynamic_ATT5.6mm_scanner;Applied;S1_D1+S1_D3+S1_D2+S1_D4;3,3727298366325877;0,8334978339196457;-0,7113225221302969;0,596712652719436;-1,300640304478164;1,9738388359007168;12,43040203239659;2,1163286402692063;2,0726846859649863;0,271198996135307;-0,3282318769282833;0,7106434484169278;-0,5256403867483648;0,2879944539043843;11,850076570986904;2,579008352863015;3,0446576180760863;1,2893873330994878;-2,2908729408561457;1,0476760033944397;-0,06379113017291091;1,7893663676336364;11,783444201677245;4,992648914758173;4,087994918864203;0,43114777163032225;0,10576815810968572;0,5068419244627518;-2,8295795163706208;1,6911993504393787;21,02432854512071;2,85494729614533;1,2443799011656855;0,24931143145417567;-31,230290384194525;2,358699012721975;10,939053073114167;8,234816381621297;194,03238086874074;26,428479852718482;12,855102267934665;0,8435497662348613;-0,14980672101629772;0,21322434194650824;-6,1386752010183745;3,688520775348569;77,57667600948827;11,348888206718227;1,3422490382397192;0,2465442361339197;-43,92711592962273;2,9412070437709743;15,301405659403073;11,548086421611035;271,4644601826543;37,70767563769411;1,176966861896765;0,284646435193;-18,543974460815143;1,794972976282563;6,649490861694739;4,9011157058387536;117,48610211960094;15,002968640476947;-0,46565048940751197;0,8977009377990619;-55,2721488902366;0,7006937445703018;34,605087404041214;16,414780189927452;393,3048072811038;19,299189362291763;4,736759266699686;0,7924286790197401;0,9479646491087559;0,37052524666368486;-1,0014085434772135;0,3596567324840803;32,38882390268502;6,994961967949242;-1,9062028327067306;1,2204335890360916;-59,1592497478897;0,7417398468695839;36,214698481224296;17,173228755619725;425,6538340429098;18,362414300581804;1,0108315070590652;0,8998447809542636;-51,60551302430721;2,028506996185158;33,134857619868576;14,490996285015415;361,4598295128721;22,689927130752373;1,8320563002717265;0,7443950308168349;-41,074626096232535;1,1005860972749153;25,90161876465296;14,669720906858052;297,35496144373303;14,717287524140756;10,376572904080229;0,42086097216495627;0,6823462422887036;0,3759529021617487;-1,863635549278382;0,5863759640653982;77,28405861985442;4,0570838018870665;1,0127299544482515;0,97103767140361;-50,682418503874736;0,7959446538577234;38,00740439629275;14,724963179859293;373,28616419555385;15,952396261339516;2,6929118366980944;0,7772601186679924;-31,677074674192816;1,5745138601970246;13,330158642869112;9,857312175940388;222,8389194539146;14,013092363924784;-0,9593409054809742;0,5769204329117515;-3,598106154597211;0,42247194492317686;0,6011769255107019;0,5852279535848438;23,768280641159926;4,432531526028434;2,4998805641374964;0,24372254218136424;0,768428630868896;0,2798856787624767;-0,2868964601942018;0,1532847097224579;19,628304167146464;2,054780378299644;-1,7301097120224533;0,809283556674553;-5,921129871666439;0,4633941901376214;0,8940348148897141;0,7705911471867585;43,39658480830639;6,299716957743808;0,3499263664532927;0,2870266259447993;-1,4278034961435833;0,45071675270580214;0,5805984730328201;0,5995337940065169;5,399104270610729;1,9891169224592467;-1,2136881568995868;0,9906281181321508;-14,022696856734068;2,962396902077306;2,555720274064581;1,1579975630261587;88,50698760483262;21,76591775022498;1,6848084918393602;0,26516375683134313;0,1425452622609586;0,4619053788112471;0,4329830229804312;0,8736832752378819;8,499266910253628;2,7391540975432336;-2,160381108162268;1,203216865345856;-14,230619595728735;2,6217228801726855;2,4015765877341564;1,077155833109047;96,65495729573318;19,88042074052549;-0,2669184778885397;0,8558251978175923;-13,819408011715158;3,3437760584557137;2,7069939135990713;1,2542863294169806;80,59917963129116;23,83320829421939;-0,5669701202597325;1,7400611934906955;-56,85866614103794;0,8794567006582401;25,9199013492108;16,69803113494324;425,1542548702544;28,367944438091513;11,648493832927945;0,9404163017492948;-0,5090603741908059;0,13039363349306898;-11,794289588437156;1,625045111935818;64,28246410284696;7,779593718195024;-0,08359640326128029;1,8182604936348281;-66,3502686222068;0,6295653091626431;53,91946751714045;10,296467633352172;489,27577807991076;28,601768513275104;-0,896175041637993;1,6207693519209159;-50,15717612141322;1,8038948777741215;9,082512636586753;2,865301412143686;361,08541236729576;30,20238634798847;81,29102772146746;0,44866395013152566;40,22784821555406;2,5294808226088707;16,355480844893552;9,654405425061244;55,917687194147746;3,2161627084076465;557,9984007005211;32,263844470747884
003;001;Valoxy;Isometric;Isometric;semaxone;VL;40%;5;Dynamic_ATT5.6mm_scanner;Applied;S1_D1+S1_D3+S1_D2+S1_D4;0,7369699770968888;1,600720518740666;-5,44424892481314;1,5249689519392107;0,10773986604933557;1,2535859600607242;29,806945478536715;5,484614923758018;3,3846826393565523;1,1351802153327104;-0,8310699779536845;1,027373947988764;0,5933835054725842;0,12679501193972656;17,96892833774175;6,541196588575326;0,7724565003112249;2,4954837793085916;-7,867691079261071;2,136618064668649;-0,622209680389985;1,4319921469640318;44,43998420568798;12,198261346028215;1,8457173210779512;1,2880490668456246;-3,8443379996232707;1,6042232909027943;1,0068754773595525;0,9062874673222028;20,139759025867455;8,560379326756811;3,2919462021037744;12,410297349603045;-43,39443795977315;14,44121179500219;18,689107117339;11,615789856969721;306,7896796260361;96,0513132874078;17,230250746334185;4,410142852068195;0,5302844909999895;3,9478486725852586;-7,692980276747744;4,1794756728041;116,65915451139236;34,65933461500876;2,7616617111037853;16,348164789095495;-60,464431024658964;18,80983752528597;25,60921263901947;16,439776004757118;423,39147409364585;129,3689916975381;3,924633389318784;8,431310898817909;-26,604960652114208;10,286770702470228;6,950497084219715;3,398764241695709;190,2029242573244;64,26788565065927;0,19214638836927983;14,375046148445888;-51,641632105141255;13,62455302277897;25,35965225643598;14,974513602135127;355,8928501712522;100,58103311439554;6,560386535058875;0,3726107729353459;2,524355950485168;1,6537329556326223;1,8062164643235086;2,5936585317510965;39,57548359227499;11,352170634598245;-4,032867160130907;14,548389551019216;-55,262049672918295;14,868256874830122;25,202957289512852;15,179021206985675;389,4223057590789;117,39980489672224;4,426970196166902;14,22554098171988;-48,10963427771204;12,344451805526976;25,47552367837395;14,905861496908653;323,26070317432976;86,33298293390878;2,175468813490441;9,185684856202917;-34,7273823175708;10,528094606318133;12,793335414036507;1,9033111428959308;219,7310292936284;86,17882915760144;11,699445336168278;3,619938354501693;2,0128448526484304;2,9670490884500147;-2,93285609622585;0,7725625132664684;91,65250915503924;30,269294241908135;0,16262396084201125;12,096011588883295;-46,2177194237136;13,926514183697872;16,008485355005842;2,6347818706754094;310,90749610427486;115,81973243528164;4,759457370330843;6,042163177241226;-23,383018299275598;7,254055451044147;27,508828323964575;9,824963874579456;133,4068004400613;55,6978752477818;-2,1959121749793673;1,405123813022253;-4,686764707250039;0,7230130744223352;0,750666008338408;0,2326786336091315;36,92773776251882;8,664692613679044;4,978033574306276;0,7042776570424355;1,5271842662738742;0,9582721406539765;-0,8871153155397256;0,12862569002015356;38,483136933654635;7,0215004020531975;-3,7260555640245;2,3576815433892198;-9,63139378819695;1,4574110463750747;1,5464401708659001;0,3523547694720536;75,40953178691896;15,563709556835928;0,7510273151932351;0,26646875440421613;-0,9249548535962073;0,30364452816278087;-0,3151317215827816;0,06845047120725883;5,492763872009587;1,3086576057782082;0,5852790555154208;6,066789435319739;-26,818607176988877;6,576202900296563;5,282950146379524;1,739196139552922;175,54681761704535;37,24960882341474;3,74575892679278;1,3963046662620282;-2,721778585328175;2,406486788882089;3,084627587476091;2,7802931560406603;21,20522160314238;11,671935046428823;-1,617321093831599;5,9938537506946;-24,221437432549713;5,107267226607697;4,312876640837774;1,237798850478377;169,00141761844048;38,640394647652876;2,826577066617156;6,318688711787515;-29,465869290316398;8,527288011690214;6,569686198884577;2,0590234297860937;182,29449805759182;41,438864954102996;7,951410781893664;16,98496427264134;-58,79556162313817;16,645871552227803;57,14670340402613;18,791160989719117;433,7489951275558;86,98295297598989;8,245211375698343;1,4396083485067228;-7,946606862886215;7,219062815897553;6,3139430970580515;11,391059631397075;58,58196723024575;17,000110662412173;6,880511820088292;16,94962780955299;-60,715339156806465;16,71100667371657;59,66830220571212;19,254061392878324;418,3572552970994;106,074076143388;9,192992392689868;17,10709420491441;-63,15009243785296;17,213642604218826;37,917850089532415;16,136041458798367;449,583818197125;95,45158832614364;79,72096790941569;0,9101492729706995;22,444549749931337;1,9014373351714196;19,206784574669054;1,7092788991416377;41,338876046535155;2,050580827496434;412,1210390208597;20,492101061480497
003;001;Valoxy;Isometric;Isometric;semaxone;VL;60%;5;Dynamic_ATT5.6mm_scanner;Applied;S1_D1+S1_D3+S1_D2+S1_D4;-2,5396273514873697;1,1473568794254883;-10,137301508353518;1,8701398365864654;2,4857986346435763;0,7751082540319798;67,28530277569345;15,499337255906509;4,132606959406017;1,2540939893861351;-2,4785153313926624;1,0440081081133987;0,7936597578912281;0,13968268184213956;20,303083055996563;4,874154759926591;-3,322717950702193;2,452812423110175;-11,508343033946476;2,480549182214962;-1,5133528648702115;0,45664504681320883;73,83857170027277;24,369097469859337;0,6882573671835324;0,41697077847355773;-10,203062072428493;0,8336569124887601;2,3447112291551377;0,5705213460330673;62,276550203182715;6,086833291189607;-8,4738300184454;1,314024533629832;-35,34274946027512;2,569379946594638;14,325035018660179;12,114812420811315;150,50696313322527;21,37283570163485;15,586214943016646;1,4949379696645604;5,335232898405372;1,4356191053655876;0,017248630355981474;2,4253777987520047;80,21674750564912;15,385960322419622;-14,586673787587277;1,4216721562166263;-50,92896440329177;3,840325122285293;7,409581850265413;6,986339569076471;230,7237106388744;36,180436346053845;-1,621765996596206;0,6208545702091083;-19,75653451725848;1,7102656639713503;16,24395873061966;8,743805364911552;70,29021562757613;8,833333897993558;8,970720179994018;4,953992685190173;-48,89714574423367;3,0326551069610375;-12,944522829485035;5,419051240845959;122,16526807721898;12,944820156249989;10,839437122709525;0,8736920506060034;4,864430364118132;1,3822910101646473;7,5519109211782816;1,4552975816101306;78,95885731115854;4,447050139881013;0,9284390352216704;4,486566204322482;-55,34020416082933;2,613099086911269;-13,749790994174282;5,772745917030287;162,2951095362639;24,037602941095713;17,02890459775789;5,5056258828763065;-42,86603466172991;4,073005715930011;-13,718087099418957;6,123294469927867;114,64748345273874;31,788930808091806;-7,1704611855539095;1,6686001001299384;-33,48605581192923;2,884944016125158;0,5589689210184628;7,083445045835736;121,67019065739362;27,517174892143217;12,07378428974738;0,9166306215071405;6,537410961710643;0,5990614874150179;0,4428452464817269;1,1287047320975034;80,76961432650872;5,902433911519835;-14,318805687073157;2,3329618554025044;-45,460516343606365;3,347833858724032;1,419793948921962;7,505378768305511;202,43980498390232;31,565706086882958;0,31230239260180676;1,3058061129946303;-21,513730113090897;2,6245661533003997;9,174007225812275;16,436373134882416;42,94093539977884;22,155708190144512;-2,496481830325994;1,535324871543455;-4,305415775728392;1,688626717899982;0,16400337771737994;0,39615831080637576;33,33847556437074;16,040340925416793;7,108254894703312;0,6350200482593766;3,4517551393563863;0,7106854860863033;-0,9823474135264816;0,07852010061398043;57,19255229134658;5,088055194776066;-6,38802749914384;2,2718674505109666;-11,267547611162865;2,3935760373336614;0,7013410511746608;0,7861798353308936;90,53102785571733;21,09931591495651;3,6348258338719375;1,209431364349311;0,10380400414132893;1,1706549029856979;-0,9561450134310487;0,32370907675278626;24,877218084429966;9,843397521889905;-2,7272558357454573;1,94413467008741;-49,49850582975362;3,4021800227691243;12,43210906282802;10,52023106583404;358,8001454393242;41,35387707476256;16,35536950511559;2,430837614622847;-14,188576181336396;0,7347694179592301;7,102082713988969;2,711747707264402;104,4647928010323;9,188500288640618;-6,583528544683996;3,1542506794472187;-58,85078135918066;8,378692028925263;39,633151833257216;10,174105866753;297,58297891477315;41,2547289983886;1,1667037718180437;0,9882256881768885;-63,01389008671781;3,2479296825107715;11,607998950305497;3,133825701786446;423,3864642382743;40,57623121676227;1,4276556428573168;1,0824086806414874;-66,82341624554405;1,4095804095158626;32,06740795297695;26,32132729052241;469,7982025606073;29,5357453136106;7,187225549779926;1,4004160822248737;-23,0979396228803;1,8553544531671988;5,428982204833872;1,8087620461774017;151,0659840505098;19,885736247700386;-0,24256199929384206;1,4306882281882447;-58,334257977346944;1,285865508403647;64,54632886450342;1,9901492641771763;334,4326744009358;14,87359502101845;3,4579478327820867;0,6427141997954854;-89,5835476650115;3,0687459884758908;13,30410560951817;0,8465610703428026;609,1206246453542;46,607227759452186;75,99765656078924;1,4310194063115607;32,76308663705305;2,016536901247326;78,97432977534866;12,459071050361304;49,65012256300656;1,0018489631673633;495,7832594325687;10,055591009742756
003;002;Valoxy;Isometric;Isometric;semaxone;VM;20%;5;Dynamic_ATT5.6mm_other_session_fallback;Applied;S1_D1+S1_D3+S1_D2+S1_D4;0,37717904662081114;1,6660174241653;-9,692723924517514;1,8621365588644454;1,9999262930167727;0,6314771932815609;62,0771954024602;13,198305894095666;2,6744800060918332;0,6387919093816642;0,3516620768328059;0,5707572416561135;-0,5488746880760769;0,18472368684298976;19,226029811550696;6,0743940453519185;-0,04730151637341682;2,1670052377533926;-12,288041818512964;2,5468965825916823;2,4461253537255994;0,8334465538253695;80,92688692403848;18,975487069976808;0,8223130381546655;1,2700708422067954;-7,1049248598759664;1,2328219602466537;1,5826419897051487;0,4413492857715906;43,58377267802084;8,187823537546405;-0,21301308772544258;1,1598878781069712;-5,99719830415516;2,0137185715929387;2,42569676698081;2,2246009040508747;37,77145317831752;12,75688362323493;1,9039082956751847;0,6105512785535698;0,5007403091208987;0,26850189124493584;-0,5050440556588759;0,6741810118509831;12,721143202292344;4,161466692775036;-0,8360218194557023;1,287492040438162;-7,844566821433429;2,6481795431092143;2,4238849519767762;3,211833102150426;49,99034712153778;16,824562222862188;0,4728656701998254;0,981955425295986;-4,149829786876891;1,4126594598344326;1,8028501224924909;1,7300707266231286;26,21425427158915;8,573925290539572;-1,0688563641298419;0,9515113231682523;-4,702960918918242;1,2546556952697765;-0,5059700614218171;0,13341086217481393;21,647813560571215;9,499903024480764;1,9007182091765558;0,19588508870324214;0,5210798604538407;0,15147495007709053;-0,09841043514751348;0,36828484922118954;11,929202235689345;1,3798825220686044;-1,7404402959102814;1,054740979344317;-6,261701377835476;1,2831612707578886;-0,6438094116163937;0,11505984929810807;33,48543849850649;10,572197397210498;-0,2311446060385019;0,9377358169622878;-3,1840957851063587;1,2529343574090464;-0,9154053429958509;1,0898175754461348;11,774598445885932;6,439217184073025;-0,8282665135816846;1,3316279000320508;-2,785425969414053;1,18665344824836;-0,6776175561647817;1,434931425134558;17,646955573730207;11,753027116052337;1,9516218534843326;0,08769282729862397;-0,8171793326339843;0,1570195218775141;0,41143654768507376;0,07712338804015481;7,847639748116021;0,7651964577635727;-0,5323375236992212;1,1633290941206578;-4,65611685608737;1,2387798228462206;-0,6070087425511637;0,13159702368897544;20,19718149463718;10,45825986093698;0,5569735600999944;1,188704376257941;-2,500950163078664;1,1331149885827019;0,4487412233208793;0,08326688676706182;18,249444057400346;10,715651196709246;-0,22944402883228793;1,4283741363391569;-2,9026049292018214;1,3648827933217829;0,43645513402979635;0,20189360879732646;21,71749980778953;13,2412514463821;0,2552233320639548;0,10677720117543817;-0,41970369637789473;0,06800887937279321;0,07801544973314588;0,01742474368761997;2,6114864482419695;0,5905209809560363;-0,428170144654531;1,4444819404062168;-2,609943540343612;1,3935681464155467;0,5455528987030276;0,1797391090375892;19,835897521926146;13,435469858119822;-0,016103282615202764;1,436883628668249;-3,2643381417063524;1,3228411389843389;0,36482611089830674;0,06879302576317047;23,73321786686257;12,994529201278173;1,2417085967155015;0,7318739977939575;-2,9516453520720196;0,9192350847974077;-1,8363179343298774;1,256994117191903;10,88459847211595;2,475707874437148;1,269738108169634;0,46155344117460495;0,09507609441058613;0,22463780587114027;0,7313674830549364;0,41506850732661704;4,125679143545744;1,9642603138117092;1,0587111223823702;0,9136028614396696;-4,130128776161026;1,3328521435192286;-2,273409364984672;1,5776495329350697;13,97949836689504;2,7364032836513426;1,4347563398170897;0,5708238607256366;-1,8463487061597448;0,6107634537457647;-1,521761112094931;1,0863326777636508;8,891812410594657;3,1038074448108444;0,4532315567757824;3,746645297666307;-22,947009681285586;6,551209922710286;4,756799943504835;1,7834855267507046;150,76169953686917;49,3568788222208;10,352811811469556;2,160838422221445;-0,4443574304123845;1,2134604018370796;-2,26098357545097;0,6255502128176611;68,47786505569192;15,68100507630006;0,7432148502164424;4,919331889625369;-33,16925860018118;8,628579259042416;6,268050562608037;2,543134888332687;219,02793829675556;64,84404507027483;0,20268611918518725;2,6312805581248213;-12,845439845195145;4,4730078421701815;2,2667066718537177;0,9932471052201195;82,74592202512551;34,01303150963461;75,48812178699414;0,7596015584671139;72,72779586315238;0,8397256800730954;-1,7594835358946308;6,548427767804688;74,08655974123569;0,7427357446432132;740,7957096743542;7,426072921235413
003;002;Valoxy;Isometric;Isometric;semaxone;VM;40%;5;Dynamic_ATT5.6mm_other_session_fallback;Applied;S1_D1+S1_D3+S1_D2+S1_D4;-0,5540427829746399;1,7260174900896696;-37,11780823895595;3,12103358278518;10,014498381150798;0,8543634766363113;239,406557420756;33,162733745868515;7,06264068615766;0,619104385582205;0,8348579684988036;0,5984355642824676;-1,0102540423959647;0,5089502164377321;49,39108410745921;7,591942024411565;-1,390780223547497;2,2990120790227784;-43,6833303611418;2,2822715131640745;11,543014681830016;0,8495910682479714;288,4955875919611;37,100015473504946;0,2827902058880628;1,1759963631035661;-30,670333379935393;3,806042878927697;7,935886935396953;1,6920464164764695;190,52071154247625;30,64584455750064;-0,9851019577475952;0,9197074420274257;-21,052268459137622;2,3056895838585993;5,363197603139133;0,6339843793166807;134,82213946023825;20,61780315159698;9,17818707858604;1,1234671536210081;1,4973380241134033;0,2651993959963141;-1,9764023784344587;0,347086256231387;60,07193935371722;8,380281228973724;-2,491597273874558;1,1545026794702586;-30,229053899819906;3,4112765446065527;7,4049967458421575;0,907343649386794;194,7515558063018;28,883397978890223;0,5315183395749636;0,6805481650228049;-11,879984148214678;1,232750695998206;3,3988162417205983;0,41462139064400677;76,43959330115928;10,774167957808077;-4,268415042121598;1,0479751837296898;-11,55907002033184;1,092969426200909;0,07256468656673416;1,3942508561500244;79,82363216133807;11,140054963535922;4,975334350769563;0,051484309089357035;1,4831455123755029;0,3102806698864895;-0,0386777378361514;0,6875492935730007;32,848737061311894;1,329018586557779;-5,751560554497099;1,0124618480459282;-16,476954682386946;1,120628472711809;0,06237006861883136;2,096943369371059;112,67236922264996;11,289897710673099;-2,752175795233241;1,1727981459284296;-6,9674619793415244;1,1108584242399417;-0,24738680775392502;0,6836033641598511;46,974895100026174;11,147754916151186;-3,934774682791975;1,131497935204378;-9,409357559084835;0,7829520817794228;0,6250308998268798;1,1024272996146995;64,79804698462873;7,584388456808449;7,304410674359113;1,0376169286603998;1,8050079985419505;0,42967364883643905;-1,12247335969021;0,8528495863518598;46,470952722634;5,702727554296411;-5,806313835481984;1,573103556250883;-16,631076368332845;1,3035912413088304;2,1403830436903375;1,7197950831983666;111,26899970726272;8,490858203946395;-0,484456802039792;0,980034336853997;-3,5618424127015764;0,9769787465594947;-0,268776811571105;0,6885705826955489;19,394563339103907;9,108378352387142;-1,1280341859809018;0,7907394729898563;-8,403652631556525;0,7592633576871218;2,042549076978883;0,1738566396065541;55,540082928300365;8,245134172494751;1,8060816320494957;0,824277046961468;-0,5010591286010009;0,20720456160497483;0,3249903662607648;0,09721626527062982;7,3074272706519805;2,3453216641353767;-1,8708503982078786;1,0467670072271575;-9,341505000611685;1,452360049959499;2,0758793390507213;0,3585293975069624;59,8661172631094;10,046029064258436;-0,3462865818248911;0,5970713366219159;-7,807868307325528;0,2812903312094718;1,7405131669923903;1,128378163437883;51,2739370320499;7,9564816094048885;1,5861829234823592;0,7184658509882389;-4,781680735774485;0,6593133590465189;-0,9398375846877489;0,15712690072597238;16,636344432690784;2,1989083987542295;3,0692052050107796;0,5461328071100836;0,7256051834118102;0,32918016195912003;0,30736866464071255;0,06767185151149811;17,428537654606586;3,4690887809188724;0,8054527006823612;0,9582297793796479;-7,780309185489429;1,1646724076676696;-1,2618568074785266;0,23862601494693772;26,687951589336098;6,553480397026604;2,459927723041937;0,49267207643567057;-1,842151970210637;0,35423620731088007;-1,3766189343426127;0,671892055210551;16,70701375461829;3,1278297243562103;-0,8754878362817659;1,993802085728179;-107,18716965117396;4,941413691539407;28,832240852888752;1,6870360677001988;693,2519965842539;78,0563971165691;35,725224248077396;1,2621266617442168;1,94934805743504;0,9605653435654439;-9,140318764796863;1,0618802318883998;234,61466257748074;27,426567973664227;-2,9007447955300374;2,449775459323741;-142,80765337083048;6,071237623207496;38,274381698932444;2,8080737826251796;927,3401349342705;106,15822535533928;1,1874992075748942;1,824666339768021;-71,63292870628635;3,7964464071831263;20,035056410472684;0,9211487842471411;461,77992580109895;49,53418414963813;71,94402322413147;1,2120909488761196;60,08866406708379;2,715916224319496;3,3180844873096857;0,5228858254166356;65,34737430257104;2,2522996352140443;653,1444939809564;22,59574583888361
003;002;Valoxy;Isometric;Isometric;semaxone;VM;60%;5;Dynamic_ATT5.6mm_other_session_fallback;Applied;S1_D1+S1_D3+S1_D2+S1_D4;-5,492364130271376;5,0513051740639066;-44,602059135364634;4,310064993046127;9,779926948395751;0,7208607215357716;307,46826490277493;50,53230107286372;5,475426875971783;0,7270542446808002;1,3871809926200516;0,8519608285039704;-0,5902040231778795;0,14096977177971137;34,43558683582349;7,639065450382063;-7,67619401190035;5,6849766223786204;-47,34276060138193;2,5146584800973435;10,401421378246397;0,39378446881481866;341,28360774821164;45,611532610545375;-3,308534248642401;4,457034840550678;-42,01697410170855;6,274458306665706;9,706182189613392;1,0965116985135102;274,1188470500194;55,01018499547052;-4,995566740477433;4,446183311931873;-26,778896245060942;3,873488481247325;5,663866478416867;0,4734089965200365;188,55586975381334;40,228228652309916;13,037674854866527;1,558608905842342;2,887482298620251;1,3137369755387744;-2,55665402248398;0,2396516359020264;93,0024940082751;18,351928630587786;-7,883049039097683;5,753679773322923;-39,74089591716391;5,391647535492154;8,001095853126213;0,5701959343851118;280,9383305009624;59,57009856280899;-2,1080844418571827;3,143894214895464;-14,70088399816504;2,632263731459728;3,5995508243002434;0,5658524292238177;96,76639735075094;20,24482089266679;-8,605838983496048;1,1728995064673489;-21,221621915927898;2,5473031356106444;-2,0973220798107133;0,30815222699980854;150,77492875240537;17,03235284542551;8,859568104754334;1,171012128905098;3,2855916236657214;0,950382617037366;0,9193535699899964;0,061808524301390125;61,9020151059578;9,932858917826282;-11,891430607161768;2,014190357616025;-30,05793858444905;3,679760469274068;-3,0036678695086705;0,36791521315078984;212,67694385836316;26,47796971089263;-5,085583911810776;0,6762148999054844;-12,413808988606815;1,5261968101938141;-0,06564995155120172;1,5213920748593797;88,87291364644759;8,743144711949151;-8,695917302851566;1,1930433337657256;-19,870580268255303;2,3253001395451554;1,9399851565153576;1,8419810766389457;138,0752154061188;16,964139570871588;16,890820908055197;2,8834727187230227;2,653635463284629;0,38938223786213466;-3,699727334817878;0,9871456943803503;109,41120265817158;22,119742151132414;-11,43904596033352;1,3997152452737156;-36,69842353673208;5,120792943836741;6,48352833950417;1,4609917926758875;247,4864180642904;38,3763470550576;1,4382950093671187;1,84333939363761;-8,096097763063517;1,7838331696590606;-1,2695074100892085;0,4388074224945604;35,993549493730924;4,6909010743548665;-2,955210908066895;1,009729100580559;-16,639006941170116;3,067108555367506;3,920810497729088;0,798650289982113;109,09867772120715;22,30635396623167;4,9057619806002695;1,9215840988129658;-0,17921075618502916;0,40200892048121745;0,7551314670023668;0,2518293507120602;26,260782779524515;11,560292727584766;-5,313372340803325;1,9397955390763322;-20,974152601392777;4,955148139698812;4,3480189805009495;0,9877631303644706;134,5612119307155;33,99516086700151;-0,38516947290823983;0,9288762765688472;-12,761457286526166;1,4352658331750061;2,5500420632852974;1,1280382006911684;84,26813214904328;12,187254007242498;3,2969945828537623;0,5292468952693908;-6,402299284590484;0,9365652970930439;-1,4922236702488916;0,24331752468610732;27,45702331472637;2,8137537833110136;4,898445337968567;0,9273061931500716;0,667104890662845;0,21365229218155377;0,5936310520294914;0,11626477899631799;31,147812305311003;6,769181683641284;2,527171979802806;0,683175790316324;-11,268854620811162;1,6650137003680363;-1,9161005889549703;0,23389149553131264;44,970373067856016;9,337636423602953;4,8122716327849435;1,0200575079031642;-1,5446698503999365;0,8694021299432457;-3,1753739693041103;1,8832709262424807;30,36572685986682;6,865161035269677;-6,997750639128121;7,543692795610386;-127,67902415254962;5,286464052661025;31,97849009365965;3,3729333325689295;890,5762277370566;98,58632848620206;40,0703747177372;2,6133294097650803;7,647813724001078;5,2041190658719385;-9,148162943065355;0,5940652818665009;272,0455789802203;34,655496600469476;-14,77369073221433;12,517094243108746;-165,4498188132005;6,7978958010674315;39,47068205432232;2,307176780613264;1161,9383069252253;134,16739297606725;1,2270795938242698;3,101218076729672;-90,69578783296197;4,130521184631924;19,489006592764454;7,776408179840054;620,1816627918586;63,71418814225922;68,0241517019855;3,0376157756016435;48,72913534188387;4,5930148239485895;5,1530408213973;0,841405621105178;56,670115968225424;4,527219344432065;566,1296467529498;45,39831906100917
004;001;Valoxy;Isometric;Isometric;semaxone;VM;20%;5;Dynamic_ATT7.2mm_scanner;Applied;S1_D1+S1_D3+S1_D2+S1_D4;0,5891697008184098;0,40394787643831026;-1,5812494120517022;0,05232741441787522;-0,2996488213257798;0,04716796374692196;6,213954162788033;1,1662012920277252;0,8376959413538811;0,15237841660566176;-0,5427585597813946;0,21100653043715356;0,15186087773889104;0,023429257592980285;4,102545952514652;0,5079126754123586;1,0997327135869606;0,6130907342298048;-2,4134695505527133;0,19471636564685674;-0,41801235486285215;0,0855517035500043;10,137356981863267;1,651470430845626;0,23057177318111668;0,13893166966054218;-0,7517538261001208;0,10913794050259909;-0,29731865308352734;0,20166555460516036;3,2152157501337513;0,5196108700493158;-0,43859536501950397;0,19529285883883957;-2,7263862123019313;0,21829769933976015;-0,39147566000200756;0,08127251294510657;11,973047710792182;1,697760406299145;0,8754028682362259;0,4227645852103635;-0,1542343792634045;0,23552273449996683;0,11553888638712792;0,0404207227959761;4,877348737242686;2,296504720110669;-0,46436895150425406;0,2985569966238568;-3,4901169046607636;0,4998413916571587;-0,48978471611476077;0,05860310052353086;16,15507495688447;4,501316824259172;-0,18946357080740187;0,13446364716211823;-1,9728439592437534;0,42919558898294025;-0,3773018147631319;0,7268922741013848;7,811340267626653;1,4757490488435032;0,2235917376322798;0,6526996907442953;-1,5339673133443732;0,46918567604472994;-0,5267137516778648;0,2606488485393827;7,9768215981711235;3,060230179690312;0,7268151443419117;0,20910119796975624;-0,8475725794603901;0,14805059610357024;0,18958260288202095;0,023850504003982698;5,7155454966624735;0,5892395489046593;0,8714968598889545;0,7492517396269471;-2,21592408648478;0,6740510495286554;-0,7788295814550602;0,47673874580057046;10,50109709562973;2,676289703979824;-0,07012669494986816;0,34458237784204926;-1,4506080714935479;0,5443573202981199;-0,04889609881759274;0,270632734560614;8,423172844083954;3,6950080560367344;-1,0683028960138374;0,31998362756083765;-3,883148951287071;0,3591961240005003;0,6923305442383245;0,22758610211913424;26,6833333685286;3,629636097060904;1,2018712967100604;0,30518919875498973;-0,9436651160148397;0,2063396393364402;0,23781876079422654;0,02619038614851382;7,000648581861117;0,6728047668446964;-1,664299014373098;0,5980032745811592;-3,6502790209353746;0,7382579405289401;0,1262008481465446;0,7357875732094485;26,382430489170883;6,016200501045716;0,08317953565526334;0,13648785680125192;-4,299182739678501;0,39694647006965766;0,8472518170963731;0,35724309557404593;27,095149730941536;1,9077988180488552;-0,6278572567696756;0,2805853267617588;-3,4658771942377222;1,1815092658835633;-0,06392185918154299;0,6538750698119375;19,279805113606287;4,607660269301237;0,871192416239824;0,29788246585558753;0,25079884606987635;0,06667612333492033;0,08826388793030607;0,1205638936074096;5,091531791465245;1,1921947139330604;-0,9669617603158359;0,27989361272425684;-4,30491887068601;1,4767021676968;-0,09811672740695349;0,7885275088765906;24,371336905071534;5,748612040010704;-0,28849766402298727;0,29415610117880137;-2,6404633435327853;0,888377632154007;-0,025291330485841645;0,5200251785951341;14,196421280760589;3,4889046519339844;3,6887630902231363;0,4460281886007041;-0,8983367275472156;0,47412091009613627;-1,6398068740236624;1,4067702077674906;24,936927407404006;2,319030160765024;0,9059461923154286;0,18830604044261084;0,066941226743937;0,13772565543187784;-0,7917132994682673;0,05946580511728376;5,79020697394175;1,445129866345421;2,9532184636145487;0,4657864283745909;-0,9879385986881031;0,5543868155844458;-1,3661961958519793;1,1976720356636767;19,936493329777118;2,304368331165049;4,461312137010358;0,4243080541446307;-0,8207544623804474;0,4404759103701007;-2,484981658172979;1,9559121923059628;30,050630507985915;2,7823912159579374;3,1671465032086235;0,39330976528444006;-0,5312182685007087;0,5809454276298097;-1,063217630549665;0,654212079292808;19,15067731449768;2,3161593825207167;0,28981452898847426;0,11187166109621964;-0,9942134259378432;0,14967155315167896;0,23074234367565577;0,044251351894747916;6,283807144532581;0,7013631934573717;4,051802640960856;0,3347987638950756;-0,7519135855645189;0,6969829582857382;-1,3894256168672274;1,1262430050492174;25,24333203786628;2,29470848859892;2,403540253503858;0,33260135585610656;-0,32440834991363765;0,46285130958556764;-0,6920766016626207;0,36475545153266803;13,168377581904338;2,4770019372433962;73,84099024729906;0,2323308563922674;71,54290316090892;0,22885442353581892;-0,3257589397189896;0,044661800274997304;72,80881325467726;0,24171218420565163;728,0896075028891;2,4235252276290136
004;001;Valoxy;Isometric;Isometric;semaxone;VM;40%;5;Dynamic_ATT7.2mm_scanner;Applied;S1_D1+S1_D3+S1_D2+S1_D4;0,422779211107695;0,7979724317984799;-1,8243949018152121;1,1979858695570782;-0,35146416994143315;0,08614325433324868;11,264038175240334;3,8823759179130533;1,2441469672009067;0,5069705535136316;-0,9044796073916166;0,24178733340781425;0,24116673514795123;0,04328969676829819;7,635193795644089;0,8293154311175682;1,2576380709267099;0,9347594229879744;-3,004855140913481;1,7030093707321814;-0,5316549895089174;0,14512171449160113;17,67299751975836;3,847650150546089;0,036084334654384834;0,5870648605047707;-0,7981035727973467;0,6530934519792014;-0,14581315058916028;0,30942731717784444;6,562931320989881;3,42194956287366;0,01265908275067531;0,7452884157467382;-2,8906318053095745;0,8059159595720393;-0,5877014384038598;0,10650207152344299;15,917145987034809;4,801876288290202;1,5738198813910538;0,6452370176268907;-0,5956638412925138;0,2516866163823596;0,2740540606833213;0,05192682173778484;8,802770930653102;2,010699324166359;0,4379337503858217;0,9621776394284086;-4,359258860640362;1,4705508304109838;-0,8128631313621819;0,026001806014828155;23,579860991881503;6,450507213247244;-0,18808063737995848;0,4346275938594806;-1,6861708585572899;0,38861916535705254;-0,07911464330960105;0,36677838865416634;9,019098394161459;2,998669940959387;1,745171645573236;0,5975675793115093;-2,156882951830654;0,6841689080582554;-1,1336498904925962;0,4269638336700804;14,735928559231372;1,839288636874418;1,2027646726887382;0,5353790174758978;-1,5229173254726285;0,39841049366560183;0,3028622265388421;0,018533083652858776;10,870116334843292;1,3179847953647505;3,008550888741925;0,9261178866515039;-3,1095122486657347;1,201058225643609;-1,1735466827658023;0,27068067951799335;25,478624487482175;1,8561186329636945;0,9037099569026417;0,4801807799610583;-1,242295158002892;0,32219875957779043;-1,6257549648694816;0,79973320038005;5,955855757096608;1,1151581819575918;-1,9594016416584374;0,44857766450190767;-4,620599945451395;0,5077742190787093;0,5678350108341473;0,1243641087472169;33,74258489692741;5,018275978171562;2,2905578453717887;0,963421017003306;-2,1759835969883623;0,4774121451835477;0,5354479506353502;0,09567501987938068;17,894803422605243;1,252662711524258;-1,696790351009102;0,8509593283356861;-4,6409374731790045;1,2909636636212325;-0,4442637564293574;0,09677948769300102;33,04978026702366;11,695497705019777;0,26098113099124187;0,8405423490467167;-6,1617288750500405;0,5297233067580568;0,9632002629574867;0,34502069523753426;36,309413758005924;6,374605333673213;-0,08239869820443366;0,44239821901621845;-2,169049830555625;0,4463696012018751;-0,28804651045699947;0,615522036772804;11,612645048156619;3,623542318392285;0,7170506891670134;0,2247067437655403;0,17150067527860485;0,1524884441793371;0,015472929031431298;0,11779449712314075;4,230907190575629;1,6548744968184774;-0,35210436802825523;0,5261352153560256;-2,80026827327478;0,6681685145553043;-0,2858897318695518;0,7030377449782439;15,826151818078078;3,667420787155225;0,20832691019988983;0,4711081935459295;-1,5554643410298117;0,3381644630210486;-0,49812457736818583;0,8364943846682904;8,103267587789274;3,764619512319598;7,05885663616545;0,6385054644612604;-1,402508606059133;0,6754636911859222;-5,859800011867625;2,985905726883272;41,9286968829266;4,850137859225626;1,8033064145650695;0,4307778123048917;0,2420436839397757;0,18370229280731892;-1,4851592691917157;0,2968190011599695;11,485659642482595;3,5235813840646024;5,387709276336541;0,7853533827771055;-1,6926179017371248;0,6127068509877858;-1,723177019202114;0,5654362616158831;34,06446264002586;5,15282966670368;8,759632500803322;0,7518407926119307;-1,1565923850660211;0,7554014519805599;-6,813693646378143;3,376805250627307;50,44806041838609;6,112592915503458;5,125275137798338;0,5878005850643842;-0,8721750876367101;0,6992583732055375;-2,7480170365974295;1,358835106735793;28,909382910246258;2,2964978031177385;0,386989756652138;0,3044301953675999;-1,2958152803876115;0,20279243420392226;0,42865579485316563;0,19324358175155845;8,025158461833222;1,123961579481065;6,3592808115523045;0,7897560000422784;-1,205998678415749;0,9895663287007259;-2,6092617868320267;1,5999274242341235;36,72308703170444;2,964077384652458;3,992711533984706;0,5096551941966461;-0,5544927351046436;0,4758004944332327;-2,1429637649182802;1,0630469237698146;21,453804448312844;2,3535607563320937;72,53619120223414;0,7704095765534325;67,60337927878962;0,756142585045642;-0,5638406272837323;0,111933376779048;70,04565546725284;0,47133276365554166;700,4450987781055;4,6981516566522075
004;001;Valoxy;Isometric;Isometric;semaxone;VM;60%;5;Dynamic_ATT7.2mm_scanner;Applied;S1_D1+S1_D3+S1_D2+S1_D4;2,303057140928561;0,7172599569257516;-6,7237431235702445;2,423346996557056;-1,191399935971528;0,25206993324144367;30,679649004223855;8,119448467586311;3,5675695078442926;0,771846344472413;-1,166270073506968;0,37446108993449523;0,5983483587369129;0,04485641908082672;16,542008709492784;1,8916727361177033;3,46641166794859;1,03605727971846;-10,243892070995503;3,1486181321423414;-1,793350889506046;0,27762294717622593;47,07652753392343;9,989261597846808;1,1548868686920724;0,4941832249708821;-3,230890878858742;1,7134094324501412;-0,6481765494546894;0,22063219066512202;14,666649604803482;5,9772336842436165;-4,561635825436426;2,0952151925803895;-11,937474332864317;3,115224999883082;-0,16505441010510474;1,157949899936906;82,36814848606514;26,970095206659263;3,4978207653865665;0,5106632485392512;-0,8854461234554754;0,4568944073720423;0,6549353177161359;0,04530876491823695;15,063856999933142;2,055781357444363;-4,335992547136251;1,565340053829843;-13,60327603421654;3,981919771475603;-1,2075648709986377;0,24877997081240044;93,62514531672142;28,419751417676924;-3,748105546499869;3,1733790593003186;-10,646682270984371;2,6316213842635388;3,03522703524233;4,32487234266181;71,33035906432312;26,18076943610051;3,7886030289929145;0,46088009340898234;-3,5431281098856373;1,2743856590742872;-1,1285966439639161;0,2296990661990364;27,76369545351301;5,36803312760715;2,879135707554569;0,6705540527355124;-1,6894244822681166;0,39356204397952893;0,5734395621267958;0,04803472899688101;15,444132949649482;1,4795861573900142;5,325932173489005;0,49641910800956945;-6,2868957558383896;1,829063061525373;-1,699235306435042;0,24292830507882676;42,3299692268933;5,558988849062794;2,6473829812776786;0,5080349092275421;-0,9064678817118865;0,7491895208044762;-0,5984893053595354;0,6386137031260354;16,13530497531186;4,435072104976292;-3,335066794634694;1,6002768994256062;-9,91195469049849;0,9784480010381559;2,1619076999940487;1,2169373383643936;66,269177846482;8,583943160083958;3,819132883154585;0,5505383125094371;-4,6390886058149965;0,2895337909438592;1,2459525453488198;0,041502389669291706;33,171927445187784;1,2542533165275835;-2,713035150933634;0,8118849692445662;-8,411989016514157;1,9445015238589196;-0,7799796127520988;0,17349822849695837;56,78173770126227;12,600622843371273;-0,2889951054082446;1,0307507557242281;-12,644736297779724;0,7263917366015359;7,5866043799197005;4,734912039195244;76,80858506197782;5,860385831212465;-1,1017653809052743;0,8233270619013756;-3,3648284321676734;0,5441351594845938;-0,020242533126762552;0,36106646848515755;22,67270224439046;5,732356847636221;1,9254618658610454;0,7324973200115016;0,20341325703861296;0,3045363936248371;0,24746030493004056;0,10217096618059983;10,394979689322508;3,655939470732185;-1,4879067661334637;0,7927776571905109;-5,108173644928838;1,2312700310114333;0,4633171095488521;1,66889101961757;32,95153189810394;8,326534947767927;0,26489782439289494;0,3186928625156823;-2,253147069959128;0,5473541180320707;0,37344198180581256;0,09546803731188085;12,86764125628008;4,375852308433786;10,84513508517737;0,7013252770080324;-2,3789162982496412;1,0798789876922543;-3,9394347904921445;3,300859080285984;68,77242833674985;6,215144274048976;2,805560678598919;1,1550234183948664;0,7820049844061303;0,14837956922727738;0,23814458702194802;0,2755990477456297;18,038826350249916;5,716273937785782;9,876152903791642;0,7677216371521881;-4,979234522251884;2,2549946944413284;-2,236125748535051;0,36776285217797244;67,01808678924506;7,68737160844784;12,422316369441235;0,6512986501400332;0,10932007813474769;0,4664179468044018;-8,427538751394401;3,034281667582835;75,5624470734416;6,310787800201539;10,062993107800441;1,3813579968796905;-3,7160491194610055;2,0293029296188907;-3,8396658862378565;2,3212584163725967;68,31861769885595;12,196250814151561;4,280524979821808;2,7630958654274504;-1,1637760769498786;0,4741275497793479;0,6006569929605591;0,31045326318707844;17,872860113978998;8,820492016952576;10,920989472124111;1,5781004456453271;-7,881443841679449;4,62373931685531;-2,376669417293205;0,5529387875033962;83,19472277137164;18,97367393327754;10,017017909376474;1,6724088146809664;-0,24805426289523877;1,4718831227209914;-5,696690646098285;1,4435230976961277;60,763517801550165;13,06199839062816;72,46899921166637;0,5828559349183116;65,20931170457801;0,5569046444838175;-1,0145774627142194;0,16047230012104957;68,77568927508804;0,6929642972963096;687,6745302187117;6,958268508269616
004;002;Valoxy;Isometric;Isometric;semaxone;VL;20%;5;Dynamic_ATT6.8mm_pince_ratio;Applied;S1_D1+S1_D3+S1_D2+S1_D4;-0,2573993298959421;1,4010775469303236;-1,9357989984683557;1,2630962120483;-0,14563721811941804;0,4905764052450325;15,893155592940719;9,22146778191532;1,0124980929705754;0,6558066178582491;-1,0978724687296555;0,5786751261335512;0,4382121420846711;0,16490278060091013;7,842857333686007;2,600179435877486;0,7775924522125728;2,008283249266441;-2,82103794107193;1,9932193439613797;-0,8275071062689994;0,3317866046636761;19,69713198524382;11,03252513176887;-0,3119057409331662;0,7397404087099764;-2,2151278413677926;0,745171578304478;0,6535989535472038;0,7165218644070827;14,674963567407065;7,691747259199885;1,760295736269077;1,3614102527861478;-1,0558869635291894;1,2905940972227306;-0,5863904358964133;0,355872250072639;14,80136530120728;6,3109910488037615;0,7063467385058168;0,30081013180729466;0,047662961035502736;0,2273519234332742;0,07858094309242884;0,018731441655445085;4,067932214272256;1,8922577290750833;1,5694838089838725;1,4386251376446089;-1,694594685632456;1,4581776497625665;-0,5344446544297746;0,15467149903462668;15,674541613260748;6,579512866960792;1,9997649313772663;1,3972568281741444;-0,44222130038251806;1,1840239152288117;-1,2164047324310983;1,1040302693256352;15,071736327081132;7,587864723565449;-0,5257335811174503;1,7578061890803467;-5,062624865160151;1,8072204645485643;0,6949020071058138;0,4532362413309652;33,95610502859539;14,414672864122966;0,7317160279232163;0,6909118969394112;-0,7625881230144727;0,8337607730201159;0,3008991251257689;0,3243115185641419;7,943206721042512;3,0681903608443952;-0,24183109581982426;2,5247906364380577;-5,363600539557038;2,231424339490439;0,686447770696578;0,72452385775214;33,94143497105121;21,027609358575997;-0,20428564263340662;0,8112993872489943;-5,103520537686835;1,074772909002935;0,7342203993668075;0,2744802884530927;34,13963339983267;7,83996389656732;-0,753350258493858;1,2036993877697808;-5,339637151896264;0,7226093428877263;0,7222174255971214;0,21249510486312198;36,293056523696784;9,465390355302315;0,6938209759376839;0,2944294247007875;-2,031972370852185;0,31468528012510505;0,4478554825951493;0,2627180176847776;13,706419728876057;2,216728484354764;-0,9287828148478754;1,51086446493607;-3,610635399396398;0,9535217925408718;1,938581971512851;1,2890741394872622;26,034406963805118;11,439233671881208;-0,3084578738296112;0,849583268770177;-7,253359118722878;0,7049544559290633;0,8206844254015572;0,16201895316149056;47,040314652793974;7,399871336173679;1,9478020654616235;1,0513798342511373;-0,2553036139668449;0,9872006997620058;-0,2690923805915408;0,4004976219751058;13,547459723951983;7,688776330681097;-0,14246638280988644;0,28401285556864947;-0,7861189145021481;0,2790270283686912;0,15188414655357968;0,09058163636319946;5,48222671651601;2,54593237107435;2,6840654799639347;1,156049735947905;-0,03587539164757221;1,1376890013313916;-0,5436413977735995;0,2805518713744879;17,203438468732255;10,871210280756312;1,2939078065671274;1,045987881964567;-0,4821899678887965;0,8910679895810444;-0,4843373686186753;0,25410741823232946;11,303855275542423;4,315215989294711;1,2168758843962153;1,728472118342097;-1,4482921401009143;1,3763828527408573;0,1746741299742984;0,5851111534811018;15,447592686177742;6,284391211137583;0,17855400588274298;0,1798540045706085;-0,637571423076255;0,1710821040566449;0,12459648874470035;0,034668267194627254;3,8590785410947293;2,0071587423753185;1,6809906951731655;1,8010666118721714;-1,501666969121112;1,440822838026823;-0,347548841065588;0,8501224322527231;18,066504631362577;4,056679817271757;0,8608137602530835;1,5348426481973219;-1,6043092120215943;1,3008242001497754;0,3188857180884893;0,45377116886888763;13,044688297159576;8,7632060033709;3,021086274031999;1,7379228605888515;-1,3506762201220286;1,9327459413640433;-1,9058960754443608;1,6774537127761016;22,40448150207519;12,68798878513187;0,44434083414934344;0,47850093951863615;-1,276258220478626;0,4449655827653866;0,20113594018170158;0,035494319997195906;8,304796721235808;3,561704772502825;4,113818946936189;1,8748653180789032;-1,7162937371238578;2,246060122367335;-0,7360518469951173;0,14437295997192676;29,802968612174574;14,487428801188289;2,1044932712992415;1,7370008029136446;-1,060218024140793;1,7090917311185074;-1,8330044324989092;1,4173897806664941;15,91913382853573;10,641990405725043;85,33773669834757;0,5454356162455337;83,14655151959614;0,38424717578776835;-0,2785865781372984;0,059614118064484745;84,51676734961684;0,5300489432459563;845,1968782507076;5,319507985659087
004;002;Valoxy;Isometric;Isometric;semaxone;VL;40%;5;Dynamic_ATT6.8mm_pince_ratio;Applied;S1_D1+S1_D3+S1_D2+S1_D4;1,3284225146316548;1,643881390122575;-2,048083307839371;1,0672612595286544;0,44679727366016253;0,8360941558811383;12,019089917337254;5,6996701617086885;1,1902083160352062;0,40778232390476304;-2,602835640452756;0,490389525611038;1,3196424290081648;1,4783981497845462;16,00310687187175;2,195099552830864;3,174074365208047;2,1688213265160052;-2,911721353147502;1,1258455877359173;-1,0648599931393559;0,3188543178837353;18,90922345692901;10,512251375523853;0,7263831905461656;0,7396441668741888;-2,8385356039642162;1,3054316057347364;0,7724019457242622;0,21854366480637064;18,507382648542926;5,401818936724146;3,0747869006647375;2,340922065911775;-1,7179300726666304;0,3632914074528665;-1,361129826256801;0,9893807593572028;16,92003501459239;9,988988845558227;1,5560444386270902;0,2096617977817344;-0,8625856480909284;1,7122744108298689;0,7257789687136418;0,9843387630340349;10,340818922218828;4,489295922236291;3,6759000353870968;4,0971988912620425;-3,0464690739401354;0,4841498657376202;-1,5758202064143576;1,6626245142286686;22,691498169650146;15,25756571363256;2,6134315006611746;0,9973923431486869;-0,4065739231796866;0,35654877610896246;-0,9060409055719983;0,6817406176297912;15,022050769684068;7,342284645088147;0,6229901374798315;1,3732785895837547;-5,000359068725328;2,012116320782835;1,807773493980862;1,6093652657470314;30,32577786763173;9,569042291307959;1,278664771483342;0,2056077131351202;-0,9594083164130522;0,43936925845952013;0,41294494251578806;0,11155779068389352;7,212431379311356;1,6389268264728623;0,25839861383045515;2,027183500008839;-4,989634526878512;1,9978940749350538;0,5923722468780909;0,7750617901145429;31,54971941085327;9,26069788401667;1,3675912808387374;1,4264799910343255;-5,093150843822448;2,0576223075917857;1,8174858971903096;1,7392273874819189;30,83680871638409;10,009556035917326;0,12431669374595888;1,1973015074921718;-9,17374297620231;1,8459727294743526;2,327622106946202;0,7324010513081427;57,50229023854479;17,574084428126973;2,3356230531674678;0,7068778628332179;-4,056980522407892;1,5054083487592291;1,207827504169525;0,8660476875649789;26,655041228057293;7,2334572483234645;0,3384820575515773;2,2595669819798716;-6,852312722359882;1,6422080393368872;0,3058552907763693;2,1200282117800007;43,05537672832686;16,530241669192424;1,5923062780860449;2,0534442385902913;-12,072622330168228;2,6628649710885863;2,274575361930847;1,0142840566801499;77,12965863291122;14,405990811644513;3,8905583309115075;0,7264243008607464;-0,6596709408558432;0,7482158486132251;-0,7725049167960192;0,18004021369917078;24,968488282739752;4,758285745067805;0,5884240642679289;0,15040933925844954;-0,6977465051332085;0,17949273912427313;0,17127555729431257;0,008951570788375553;4,006216301003359;0,6912770542856429;4,506599503780547;0,6961300632569258;-1,0105155683615035;0,8338968432427895;-0,7801084449521103;0,11126021171362782;27,477327502428658;4,437504959865813;3,4618688349953937;0,7130217136846442;-0,3998895051551862;0,666883970181699;-2,253223791704474;1,8559889099044076;23,073397849971684;5,166276787936306;2,2362863706338176;1,1467878421348423;-0,9376924578682951;0,5763233953260206;-0,6710786068990158;0,24991642048056475;13,407699759648253;6,9222463702612815;0,9753093685892962;0,10261829643440525;-0,7503532665434122;0,10023543969360264;0,2355853922772219;0,012176259030382781;4,755947900407284;0,2758708343406147;2,6353911278568924;1,3028072284808452;-1,8536529992041313;0,5726891675340502;-1,1915813651548148;0,8768214618377113;17,27620392638886;6,12452025316577;1,9621212455238708;1,014104660295417;-0,13507845246444664;0,6715987870362533;-0,4323658201783889;0,48593145281803257;10,270529537729136;8,420415640789171;6,419042477093758;7,085623751135924;-1,2698173041588694;0,6272167467326848;-2,6755933364169593;2,7228031839732343;27,98993850295716;25,290209517692347;2,323159880623255;3,269574316014785;-0,570497888619521;0,49471515288801937;-1,6773261138659854;3,6931663250625695;9,66798384115702;9,278500260361772;5,021512183014168;3,581255787943957;-1,939410415822557;0,9262430670184506;-2,3377017625847474;1,9617167806273228;25,399485485274543;14,222197173312885;7,8725493427008315;10,64062100582233;-0,7043235754503682;0,573658866741261;-3,6700913255978542;5,122424485547494;31,21179794702734;36,96404331808298;85,91475238346683;0,9124915876420011;81,66180217836683;0,6653272009919723;-0,6046956573395239;0,05624211555891605;84,02725552930283;0,685824319885028;840,2374557796757;6,860267875312596
004;002;Valoxy;Isometric;Isometric;semaxone;VL;60%;5;Dynamic_ATT6.8mm_pince_ratio;Applied;S1_D1+S1_D3+S1_D2+S1_D4;0,7252497021922195;0,8566181689484033;-3,4568175662761744;1,0894388461102922;0,11701453917872155;1,0174038874894122;14,089563439961015;5,8206954619691;2,241114342298718;0,5351431067437401;-3,6693985289149844;0,5323259911445195;1,7560647972149592;1,0432170823436318;23,37455529853848;3,869749965250013;3,801674195778277;2,1189510762514927;-5,619471783129893;1,6653725429781494;-2,6177418276285493;1,4924536019205639;29,196788662683286;9,095243611783053;0,36915681595898586;0,37464666572281563;-3,975893026409276;0,8511453014540274;0,8954085900276801;0,26242495984318426;23,036277765512594;5,375583931187357;7,728175241425424;0,64452584029769;-3,1405429093857125;0,6608141647134721;-1,874826107199168;0,30087399478907995;50,479912829082544;8,150172238862938;3,9236740591287997;0,37203618495058394;-4,776927842493308;0,385596013797922;1,3504679297882434;0,11667266687097211;33,01045902423002;2,1327596570823206;12,410066071328332;0,6497637101304026;-6,926104964376083;0,9817314402572409;-3,1140420560839273;0,2003884481571416;83,14135586682089;8,151885823600201;4,040935216507582;1,123085259013772;0,14051375249291737;0,4474258415242666;-1,731857746021187;0,9473098862889116;24,079832362691537;6,724769545486131;-0,038945111349309024;0,7560308167786851;-11,524635261125095;2,889984926088923;2,654723752965206;0,932870602470934;66,39176946605943;17,441037923474077;2,629609120639517;0,6140082220680642;0,7563007966086015;0,942661938447847;0,03452304604010329;0,37057337163958004;17,91074503975304;4,85699014719833;-1,3145678807839045;1,1328642469837027;-13,768910110222922;3,95946400202454;2,836464383493148;1,1131968544933681;82,77178388163517;24,19442798238552;1,277688573531362;0,45561840114925556;-9,583894078086486;1,9079253508162228;1,6891794321825153;0,5432735142827135;54,95692696779376;9,914115227184922;-2,0926828595229696;0,6822683535458977;-6,936121698543014;0,7758814018249611;-0,40511992590083246;0,8841384093664454;40,47011564953443;5,798352817131912;5,511206570930913;0,5251858531439921;-7,249651856769373;0,7916869216059469;1,9845555665790762;0,18927150206189033;51,03195937263532;3,957888348444713;4,048838853653451;1,8959819309302337;-11,947911537714385;1,0737933578545171;-2,571208096693158;0,27044294715288664;51,09648951255564;8,74229766671269;0,7676418566492218;0,6491183700321277;-10,747522010415972;0,9103122820010786;1,2776775198562094;0,2856507684170101;59,16325326782646;5,718190212891445;4,783440079759262;1,0537127298401994;-1,4175254908705512;0,8202668309477884;-1,2608901255005018;0,49576850302186554;27,355684243461575;5,13563201945515;1,5658505559609825;0,2781222669651577;0,24714011702450467;0,3673729320986822;0,21584219388961046;0,03487542562115463;10,010583235011836;2,226654194863901;4,247196025739966;1,192210937829383;-2,512055377757733;0,9032862491642921;-1,0497349587445055;0,2280165605787597;26,037923781603343;3,866421250999952;5,705069086351136;0,9371999463091897;-0,3364077304376626;0,798590045910412;-2,0148593369908676;0,9259323330922036;33,08188504459809;6,828331568398682;0,5060519063232937;1,030367348137974;-2,7134596531350774;1,386413833877535;1,4621748854706424;1,7491692715784517;16,809562126918618;3,979102491836907;2,1374301351340916;0,1633044274091046;-0,004949583409943115;0,45241729396426245;0,3161694849570011;0,05058637934243067;11,750532331251762;0,8627740303695799;-0,4842092192609673;1,7898438295410182;-4,158193951329165;1,217489087015917;0,7595331425809523;1,5432167505691137;27,92989432915482;5,3213587407208305;2,0977711123333433;0,5825863094856495;-1,608432243060739;1,6142532701015089;1,1951893441487258;0,9390847008792824;14,60750980362784;4,695351482159807;22,46664007083891;1,0850109400779264;-2,506681988304064;1,191130600298775;-15,740309267762521;6,3302393563777954;134,37424645850803;16,572664492135832;13,693773679790059;1,0838835531254722;0,8749710932254073;0,2821102587117848;-12,339394475020152;0,8540631174232758;80,28162184516431;11,78603435148634;9,895950914178576;1,3654769083431102;-4,013864714651769;1,3245333209081167;-2,46400914939831;0,5431377263170606;64,8101725193969;9,350357830518119;36,15579121411255;1,2874708009866158;-1,3037720922429017;0,9096656427538005;-29,204802935382315;8,333882449185626;205,7056921834535;24,646678176101318;84,84199252209763;0,9252348352663208;77,7614714036213;0,3556468971620664;-1,1508869906576205;0,18962983559310548;81,35394945962598;0,40752138713845704;813,3973015099217;4,0904924049590345
005;001;Valoxy;Isometric;Isometric;semaxone;VL;20%;5;Dynamic_ATT3.7mm_scanner;Applied;S1_D1+S1_D3+S1_D2+S1_D4;-9,235498092404105;1,5657124631926027;-23,5887880283068;2,5764504051040977;1,4616235808232163;3,0953274901220706;170,09222900715463;19,385556651729697;19,81109418216125;2,711418376709479;4,2440533374129545;1,1977587982026894;2,0528120688840064;0,15760851555524946;121,85899654713876;19,506893287385328;-14,519965354567528;1,0458928719525165;-42,03431137787112;5,3322394364420935;-3,6855828725827195;0,3609367315330908;291,95122555429333;33,10999453219575;-0,27461023917882504;1,4220265572011468;-7,223500127920789;2,1521884875691857;1,6016006143511485;0,6131338158027407;49,30565290025216;18,617341947951157;-6,966382659980719;2,406475259955837;-49,29285491261115;12,885337498150575;9,268051665886905;1,8612985248968954;276,29984698198814;78,07310773709219;26,732373143524406;2,7246883719698336;9,99707399810659;2,8462930665948223;-1,213341256842139;3,5361693229503386;181,4750135083717;28,722427806110886;-17,706566757740738;4,304730971230985;-75,56981717991195;14,795512118664229;12,829443673982585;2,4832466695252196;457,7748604903598;101,39879263772144;4,263687003046536;2,4688967385518517;-23,27475597229979;10,903226223231755;7,089263158234077;0,8628170011314908;111,72973577129308;49,9617478017316;22,151677667741247;10,659692178274387;-16,398029555227787;6,711278745303474;-42,62584731530403;18,458490391367654;79,8981917556725;33,885554598627905;2,953136380980843;1,1553087487438014;-10,83893031218397;1,6221027634704241;6,117282880011049;4,390942957360691;59,7469911427395;22,057283272862364;30,241738710339536;9,423489273747304;-18,10037734971811;7,005118056841668;-50,89387847960313;22,499030026720675;119,02562203289895;31,896403184021832;14,320620232010782;12,413728773438955;-16,43424430033569;6,2132762667447485;-12,673175241346996;32,314555070304245;83,63188842407982;50,867467794958515;0,22473969673195732;3,693506008566705;-19,00207875444633;5,815291702136198;6,250933650238699;2,4076196296250307;97,18543858589403;26,322535452854982;12,524201217817259;2,3164877252877187;0,2638656378027535;0,6658610342556992;-9,861081000843697;5,415025025070648;53,232016997522194;12,555515046264196;-1,8412803570735234;4,113493603074946;-26,20404524024774;6,3738753249500775;6,13404590089271;2,062621336552885;149,5493114834457;36,052841838664875;10,260730397261714;5,095228895240506;-12,085385959655978;5,22377230757396;12,608586690898452;3,9686283939418905;55,97818033913296;16,650182359247243;-0,35096558432242464;0,6937024862607867;-6,658415133468101;1,2426118889926294;-0,852693248909634;0,1085440733674258;29,500816999864877;7,260575181854423;10,44376395119445;0,4446894268021697;5,537589772558292;0,46344824559595316;-0,08127241929454479;0,9432569306168516;82,95261931155649;4,355751883543776;-6,116967590488774;1,165756193243322;-16,540059162762397;1,9397264050324603;-1,3610401952454352;0,17208612470386764;112,41512928348554;11,110934688767653;7,922160256834333;0,46705279142721456;2,4603683681555935;0,4890420841099709;-1,7927838451388953;0,329576979067965;53,49010933962745;4,575499676897445;5,425170754788106;2,137057382772846;-1,6874218481624061;4,5019705334625515;-3,717160014847375;2,448919686515139;33,32900641083136;12,540235529817096;10,582831752650879;6,427511287776792;-0,39945162231379544;3,7322958452050496;1,1925276581083457;1,238038480089115;45,241011401993866;22,615461994836554;4,316249630839562;5,743683630567575;-9,389093103075691;10,984878701045417;-2,0096355286030323;1,2894292473993894;57,27322284808709;33,31947130934416;12,902993871293493;1,639972478000569;1,5181620383697116;1,5704715616796023;-4,444804714531072;4,895369789487065;51,236050352715594;10,866884987725275;34,96617645365507;7,6759918492105115;-10,140128681097462;6,011882727645202;-18,571283739736288;14,681348600020447;256,39306134110365;56,3645436655873;7,464673435847828;1,5273993056665784;-0,13770406502599347;1,721602754943366;0,9723207712633506;0,2913894904739519;39,857364614215996;15,522576554407902;33,89996847375519;10,377289084843834;-17,506784670431657;7,338744284122289;-13,02009939378461;11,463124560843607;249,9838830742082;60,925029533864155;38,40004769009148;5,791967941301164;-3,610535946347735;4,584050293177342;-24,715479143849013;14,087192039615383;267,8544438395288;56,952825081568896;61,11358255575609;2,8045738611154714;27,691193318001904;8,71857646586035;7,568037901187526;1,1471599427026982;45,86153914105255;6,21964149353269;457,5849132591331;62,385915955736635
