Subject;Session;Study;Task;Contraction_Mode;Recording;Muscle;Intensity;Num_Reps;DPF_Method;OLS_Status;SmO2_Channels;Mean_Max_HbO_S2_D1;Std_Max_HbO_S2_D1;Mean_Min_HbO_S2_D1;Std_Min_HbO_S2_D1;Mean_Slope_HbO_S2_D1;Std_Slope_HbO_S2_D1;Mean_AUC_HbO_S2_D1;Std_AUC_HbO_S2_D1;Mean_Max_HbR_S2_D1;Std_Max_HbR_S2_D1;Mean_Min_HbR_S2_D1;Std_Min_HbR_S2_D1;Mean_Slope_HbR_S2_D1;Std_Slope_HbR_S2_D1;Mean_AUC_HbR_S2_D1;Std_AUC_HbR_S2_D1;Mean_Max_HbDiff_S2_D1;Std_Max_HbDiff_S2_D1;Mean_Min_HbDiff_S2_D1;Std_Min_HbDiff_S2_D1;Mean_Slope_HbDiff_S2_D1;Std_Slope_HbDiff_S2_D1;Mean_AUC_HbDiff_S2_D1;Std_AUC_HbDiff_S2_D1;Mean_Max_HbTot_S2_D1;Std_Max_HbTot_S2_D1;Mean_Min_HbTot_S2_D1;Std_Min_HbTot_S2_D1;Mean_Slope_HbTot_S2_D1;Std_Slope_HbTot_S2_D1;Mean_AUC_HbTot_S2_D1;Std_AUC_HbTot_S2_D1;Mean_Max_HbO_S1_D2;Std_Max_HbO_S1_D2;Mean_Min_HbO_S1_D2;Std_Min_HbO_S1_D2;Mean_Slope_HbO_S1_D2;Std_Slope_HbO_S1_D2;Mean_AUC_HbO_S1_D2;Std_AUC_HbO_S1_D2;Mean_Max_HbR_S1_D2;Std_Max_HbR_S1_D2;Mean_Min_HbR_S1_D2;Std_Min_HbR_S1_D2;Mean_Slope_HbR_S1_D2;Std_Slope_HbR_S1_D2;Mean_AUC_HbR_S1_D2;Std_AUC_HbR_S1_D2;Mean_Max_HbDiff_S1_D2;Std_Max_HbDiff_S1_D2;Mean_Min_HbDiff_S1_D2;Std_Min_HbDiff_S1_D2;Mean_Slope_HbDiff_S1_D2;Std_Slope_HbDiff_S1_D2;Mean_AUC_HbDiff_S1_D2;Std_AUC_HbDiff_S1_D2;Mean_Max_HbTot_S1_D2;Std_Max_HbTot_S1_D2;Mean_Min_HbTot_S1_D2;Std_Min_HbTot_S1_D2;Mean_Slope_HbTot_S1_D2;Std_Slope_HbTot_S1_D2;Mean_AUC_HbTot_S1_D2;Std_AUC_HbTot_S1_D2;Mean_Max_HbO_S2_D3;Std_Max_HbO_S2_D3;Mean_Min_HbO_S2_D3;Std_Min_HbO_S2_D3;Mean_Slope_HbO_S2_D3;Std_Slope_HbO_S2_D3;Mean_AUC_HbO_S2_D3;Std_AUC_HbO_S2_D3;Mean_Max_HbR_S2_D3;Std_Max_HbR_S2_D3;Mean_Min_HbR_S2_D3;Std_Min_HbR_S2_D3;Mean_Slope_HbR_S2_D3;Std_Slope_HbR_S2_D3;Mean_AUC_HbR_S2_D3;Std_AUC_HbR_S2_D3;Mean_Max_HbDiff_S2_D3;Std_Max_HbDiff_S2_D3;Mean_Min_HbDiff_S2_D3;Std_Min_HbDiff_S2_D3;Mean_Slope_HbDiff_S2_D3;Std_Slope_HbDiff_S2_D3;Mean_AUC_HbDiff_S2_D3;Std_AUC_HbDiff_S2_D3;Mean_Max_HbTot_S2_D3;Std_Max_HbTot_S2_D3;Mean_Min_HbTot_S2_D3;Std_Min_HbTot_S2_D3;Mean_Slope_HbTot_S2_D3;Std_Slope_HbTot_S2_D3;Mean_AUC_HbTot_S2_D3;Std_AUC_HbTot_S2_D3;Mean_Max_HbO_S1_D4;Std_Max_HbO_S1_D4;Mean_Min_HbO_S1_D4;Std_Min_HbO_S1_D4;Mean_Slope_HbO_S1_D4;Std_Slope_HbO_S1_D4;Mean_AUC_HbO_S1_D4;Std_AUC_HbO_S1_D4;Mean_Max_HbR_S1_D4;Std_Max_HbR_S1_D4;Mean_Min_HbR_S1_D4;Std_Min_HbR_S1_D4;Mean_Slope_HbR_S1_D4;Std_Slope_HbR_S1_D4;Mean_AUC_HbR_S1_D4;Std_AUC_HbR_S1_D4;Mean_Max_HbDiff_S1_D4;Std_Max_HbDiff_S1_D4;Mean_Min_HbDiff_S1_D4;Std_Min_HbDiff_S1_D4;Mean_Slope_HbDiff_S1_D4;Std_Slope_HbDiff_S1_D4;Mean_AUC_HbDiff_S1_D4;Std_AUC_HbDiff_S1_D4;Mean_Max_HbTot_S1_D4;Std_Max_HbTot_S1_D4;Mean_Min_HbTot_S1_D4;Std_Min_HbTot_S1_D4;Mean_Slope_HbTot_S1_D4;Std_Slope_HbTot_S1_D4;Mean_AUC_HbTot_S1_D4;Std_AUC_HbTot_S1_D4;Mean_Max_HbO_S1_D1;Std_Max_HbO_S1_D1;Mean_Min_HbO_S1_D1;Std_Min_HbO_S1_D1;Mean_Slope_HbO_S1_D1;Std_Slope_HbO_S1_D1;Mean_AUC_HbO_S1_D1;Std_AUC_HbO_S1_D1;Mean_Max_HbR_S1_D1;Std_Max_HbR_S1_D1;Mean_Min_HbR_S1_D1;Std_Min_HbR_S1_D1;Mean_Slope_HbR_S1_D1;Std_Slope_HbR_S1_D1;Mean_AUC_HbR_S1_D1;Std_AUC_HbR_S1_D1;Mean_Max_HbDiff_S1_D1;Std_Max_HbDiff_S1_D1;Mean_Min_HbDiff_S1_D1;Std_Min_HbDiff_S1_D1;Mean_Slope_HbDiff_S1_D1;Std_Slope_HbDiff_S1_D1;Mean_AUC_HbDiff_S1_D1;Std_AUC_HbDiff_S1_D1;Mean_Max_HbTot_S1_D1;Std_Max_HbTot_S1_D1;Mean_Min_HbTot_S1_D1;Std_Min_HbTot_S1_D1;Mean_Slope_HbTot_S1_D1;Std_Slope_HbTot_S1_D1;Mean_AUC_HbTot_S1_D1;Std_AUC_HbTot_S1_D1;Mean_Max_HbO_S1_D3;Std_Max_HbO_S1_D3;Mean_Min_HbO_S1_D3;Std_Min_HbO_S1_D3;Mean_Slope_HbO_S1_D3;Std_Slope_HbO_S1_D3;Mean_AUC_HbO_S1_D3;Std_AUC_HbO_S1_D3;Mean_Max_HbR_S1_D3;Std_Max_HbR_S1_D3;Mean_Min_HbR_S1_D3;Std_Min_HbR_S1_D3;Mean_Slope_HbR_S1_D3;Std_Slope_HbR_S1_D3;Mean_AUC_HbR_S1_D3;Std_AUC_HbR_S1_D3;Mean_Max_HbDiff_S1_D3;Std_Max_HbDiff_S1_D3;Mean_Min_HbDiff_S1_D3;Std_Min_HbDiff_S1_D3;Mean_Slope_HbDiff_S1_D3;Std_Slope_HbDiff_S1_D3;Mean_AUC_HbDiff_S1_D3;Std_AUC_HbDiff_S1_D3;Mean_Max_HbTot_S1_D3;Std_Max_HbTot_S1_D3;Mean_Min_HbTot_S1_D3;Std_Min_HbTot_S1_D3;Mean_Slope_HbTot_S1_D3;Std_Slope_HbTot_S1_D3;Mean_AUC_HbTot_S1_D3;Std_AUC_HbTot_S1_D3;Mean_Max_HbO_S2_D5;Std_Max_HbO_S2_D5;Mean_Min_HbO_S2_D5;Std_Min_HbO_S2_D5;Mean_Slope_HbO_S2_D5;Std_Slope_HbO_S2_D5;Mean_AUC_HbO_S2_D5;Std_AUC_HbO_S2_D5;Mean_Max_HbR_S2_D5;Std_Max_HbR_S2_D5;Mean_Min_HbR_S2_D5;Std_Min_HbR_S2_D5;Mean_Slope_HbR_S2_D5;Std_Slope_HbR_S2_D5;Mean_AUC_HbR_S2_D5;Std_AUC_HbR_S2_D5;Mean_Max_HbDiff_S2_D5;Std_Max_HbDiff_S2_D5;Mean_Min_HbDiff_S2_D5;Std_Min_HbDiff_S2_D5;Mean_Slope_HbDiff_S2_D5;Std_Slope_HbDiff_S2_D5;Mean_AUC_HbDiff_S2_D5;Std_AUC_HbDiff_S2_D5;Mean_Max_HbTot_S2_D5;Std_Max_HbTot_S2_D5;Mean_Min_HbTot_S2_D5;Std_Min_HbTot_S2_D5;Mean_Slope_HbTot_S2_D5;Std_Slope_HbTot_S2_D5;Mean_AUC_HbTot_S2_D5;Std_AUC_HbTot_S2_D5;Mean_Max_SmO2;Std_Max_SmO2;Mean_Min_SmO2;Std_Min_SmO2;Mean_Slope_SmO2;Std_Slope_SmO2;Mean_SmO2_value;Std_SmO2_value;Mean_AUC_SmO2;Std_AUC_SmO2
001;001;Valoxy;Isometric;Isometric;semaxone;VL;20%;5;Fixed_4.0;Applied;S1_D1+S1_D3+S1_D2+S1_D4;5,115767012300597;0,6489201171314267;-1,2682956476892466;0,511788485594917;1,9697504090899938;1,2901269899715935;10,548107489278626;3,245639248152768;2,3941434550176126;0,3690124604397534;-0,3617868281892411;0,39383954254142123;-0,8417417994927192;1,90776946911748;14,352693708104216;3,54188150218381;5,473490618161527;0,9108382495104815;-3,3107693195276213;1,1082351910785067;1,7383651985099422;3,5631176704769647;19,749449966914966;7,041796922172952;4,762441349407305;0,5675691397339524;0,2124586919747697;0,2755853154450787;0,2797698271328324;0,7859507225365835;18,715570374068967;3,156282382084168;3,196857558167923;0,957004298881935;-5,534356066607465;4,458377015314804;3,0174872436234135;3,8004210348112264;23,973684586020404;14,13145463549527;4,800061119038627;1,371621027234762;2,026290490795245;0,60376330917597;-1,0951097959837053;1,1408283289838372;32,3155563189199;7,879390897013889;0,917464904176995;1,4766500789952048;-9,889513783128484;6,070823158052243;3,2820496408962443;5,087854694715666;46,61503116644444;26,859079331657625;5,7242932276179745;0,46411957288789735;-1,5944735379394934;2,441911925241335;2,9277899826372153;2,522020850585259;26,415014837258934;6,702410911477077;7,007707706533557;0,6839510098651124;1,2474888350293576;0,29694431465187876;-1,5591260474244162;0,4406532427600283;48,68764088025165;4,537252087286237;0,07752430491974296;0,42290777865605733;-1,5254909005145627;0,4314065693744058;0,8437148694443806;0,4973903551384032;9,445746087073953;2,9444147262609595;8,416901298286994;1,1055888341852862;1,425230049665329;0,4709375785806955;-1,7891238871309472;0,49891983512988547;57,59477281982233;7,60345374350439;5,665409939889289;0,34899266694852965;1,059621823432752;0,3550224002088414;-1,1730022008286576;0,13611587950341505;39,78050894068099;2,1068818904696447;6,496784742304186;0,6677875921676866;-0,6162512723341912;0,6703764885265705;-1,6924470200188328;0,26555160729831206;44,19643553864358;4,617826753100054;4,585080418750176;0,4171297236198008;2,0564812686898617;0,42323517447146947;-2,246291657388502;0,4842570426852697;32,75225167828939;4,053272670081234;2,955791625754103;0,8532598607211733;-3,587693884316291;1,2237118503793727;-1,121542582635437;0,6033066642867732;23,964714381662162;4,762911260347747;10,893208808824923;0,7572621927318192;2,334095286625229;0,18176577317644285;-2,449138624536853;0,6076390487409344;75,80912284881197;4,394322253470693;4,428255132090487;1,318562056135428;-7,342578112789544;2,953522001322192;3,4906744653320287;2,338736681937935;43,276401825638985;15,397452956488564;4,083785453540535;0,5879380933687461;0,6916212538927858;0,26759351637250045;-1,0252741277100959;0,46865582678949336;27,219234488692745;3,2170912985820306;3,227803834316333;1,4273185232010799;-11,200460428172585;3,62607939656248;5,779494650744529;2,976944051435635;66,96871113887224;18,302211618708462;5,725045645586277;1,2341857566666155;-3,558867055787995;2,187493559983265;2,8469100364902182;1,9333866171781466;22,55268042174153;11,33670946137135;0,8802135874674422;0,5031827918809281;-2,090215406610791;1,0944011534243443;0,6757732064914354;0,48527359420760935;11,873972988198272;6,064352845872968;2,5880678129088435;0,3708219862580917;0,7327621550634371;0,1822242008245074;-1,6101118225533988;0,3987266577476161;17,32026918135921;2,178214889195555;-0,049309771268719646;0,6154395313341983;-4,433932014644786;1,3331187214778246;2,1810061764774096;0,8378847211992474;27,711957195340442;7,737503966077606;1,8641687018466215;0,3801467651081977;-0,1704758104029153;0,726938718712856;0,28108421146312923;0,09173428010459835;9,213469931077224;1,7320333739865665;2,2630501620521217;0,4749746328023004;-0,3442852955991545;0,9037074613561769;-0,7974012882010613;0,3211553072643597;13,899055164602425;4,390579467941302;1,7686263441001078;0,4062377415123088;-0,12738569293631855;0,5444441287454983;-0,6159234214611928;0,24377876897175602;10,615624390318306;2,6361067712411366;1,7321479043167354;0,4166822128232868;-0,8489048236355046;0,4354819654911149;0,46949311155403894;1,26601599919344;7,459866816334812;2,9745301516894878;3,5203272684106204;0,7216977532446125;-0,2614953693155062;1,2138643442659605;-0,999514809291051;0,3953210957666301;24,044087555578493;5,363790940767075;78,24881147265653;0,7828785454329077;75,5541359916987;1,5094779146958515;-0,19252208364899123;0,799978647632049;77,21214275872809;0,9037072884038904;772,0735290445429;9,063462975618775
001;001;Valoxy;Isometric;Isometric;semaxone;VL;40%;5;Fixed_4.0;Applied;S1_D1+S1_D3+S1_D2+S1_D4;-0,07934256256088452;1,0632303853229013;-11,125671076078351;1,5138592710134853;8,34387433849308;1,2663456456755213;61,67301180691224;13,085208867601635;8,91104381980039;0,13563738616912963;3,8001747062611138;0,5025601187257934;-1,724102667968591;1,0278825280930348;60,26242157253169;2,234394180332457;-4,8662425977850345;1,315340408181589;-20,035596410833374;1,4896468886815413;9,069790116932584;4,946362828853467;121,47151732513252;14,157804248200831;4,852230297082919;1,027911359866897;-2,5794091086726927;1,4103796110006686;2,2063122559570347;1,3543299438911418;24,56700017181239;5,924700928912321;1,128438835660346;2,7986999863310342;-20,05962637210186;7,01128518137778;14,061180286884033;5,897092433682542;112,34935010109237;41,22953085349443;6,633782385764421;4,686389201819681;1,6745671302485658;5,556934974658948;0,051045998571631036;0,8524166049492655;60,95784808983558;28,14956037754195;-3,154996237727984;6,372235795183502;-25,84711771579584;11,3430196757847;7,123824313479226;5,823960858691049;156,9442751446846;86,39518817536765;7,037980060722733;1,5987245638054268;-15,487021562730252;3,941957368128576;6,366036772103335;5,580784080578351;95,1858468972827;20,02381120486425;10,567260606575429;0,8903014370514544;0,22632944494432836;0,8844133211209145;-1,3117399646552996;0,29819806323094195;69,07362903767199;8,253935890000413;1,302420855732127;0,6426553264290359;-5,8432303084049035;0,8328834635778549;0,8817774699293558;0,1814060031619302;35,75776427889663;5,770130285968282;16,37699541962577;1,675509598737289;-1,0096126330544686;1,512067180487086;-2,3014728623457072;0,667684956308014;101,16795996525084;13,450201998576109;5,053940928376571;0,41889482575511827;1,4156058876838093;0,42047788188535223;-0,6457310930670731;0,25315401904107704;39,35646509595777;4,193354257482874;8,298644402812476;2,5006583026694678;-1,7741769604782476;1,8446019794825772;-1,1675342376773372;0,08998297699800017;49,377686542145774;15,201642582145077;5,404550969914519;4,373058364753395;-1,2183421040239586;5,227213969217902;1,0252625890970712;0,12093888703910885;50,46549439334271;16,52685699741671;9,512028477686576;7,7171235774437;-5,916296836926957;5,941358503171917;-1,78440010449923;0,18143958823097842;68,7995871949943;32,917768129946566;8,63924914450329;2,821009325129561;1,7401714488372506;1,9895852838913017;-1,7043975140130718;0,22618060064954387;64,21439718082551;23,230538471275327;2,5189475159121937;1,021787880491326;-19,833670974398807;1,4988829982154932;12,988091962773186;7,771856670840673;113,69768655601737;11,87448611366886;7,803283217811722;0,1504599962689587;2,1327004393157947;0,14184528098145718;-1,3197165713229482;0,05818453426808419;55,86811914818547;1,7748014986011629;-1,0753689571914162;0,8100285506730561;-27,347338686420596;1,438061862444183;15,118710188752534;9,069729524505199;165,7549091281402;12,164941490272238;6,129591124472108;1,2654879325454669;-12,378967534509503;1,6887115686156933;6,7771609188604724;4,737130618272441;76,15007595659657;8,79062880496258;1,8862556926387346;1,250943975593709;-0,899606053608777;0,7678408209836138;0,15958566790370438;1,2699746334185587;12,238330895667948;5,861917049118273;5,400246679051644;0,26660534673844716;2,059824779327559;0,1991091976233379;-1,2366517907930554;0,9168281207473259;38,4723311150655;2,1712854387098446;-1,2303074370803024;1,037003992214527;-5,255393808878397;1,6240734204351623;3,714219319370617;1,7414431970374693;34,77875427509485;13,033043963207525;5,909768298186387;1,6769538151248233;1,3583568547627785;0,7315225431070281;-1,0850881952010616;0,3176286134625746;42,16590795503614;11,96528894123777;9,113297349796849;4,054079416121234;2,69984911735943;4,054570927881869;-0,7064326329333791;0,1525382690157451;68,11241103038371;40,807450478396376;7,857360116966484;3,71401321703571;3,417642094860317;2,948857067545799;-1,716382232886192;0,77370664199321;56,588735627142434;35,025543594746146;3,661297039154372;1,1859983346722371;-1,2753239614800815;1,1438888085946004;0,1538173914085609;1,8135222242181068;18,507549749944445;7,755419461016347;15,382998069825257;7,7833858771163;6,365319978934977;7,109008834318664;-1,8926850806791393;0,39619625481411547;124,35812331683644;75,27887629636751;68,57478322913373;1,7941543398235116;60,23831669690496;2,311582976150268;0,6348124406757775;1,757087385371987;64,41827364061275;1,977723866010908;643,8922722747762;19,82657741639583
001;001;Valoxy;Isometric;Isometric;semaxone;VL;60%;5;Fixed_4.0;Applied;S1_D1+S1_D3+S1_D2+S1_D4;-3,971171888006608;2,0946395674615896;-15,26983163950787;3,5068922219779908;3,506238952053033;1,1788609351448514;101,83758789122456;26,318635033924192;10,688068603650027;0,525486442061441;5,049963820683705;0,7261510190559344;-0,3378671851638887;1,0916387247523933;83,29773070768769;5,266980228892517;-10,371297371110142;3,274298297666804;-25,92777939678221;3,911847225864266;3,594942745874321;0,6997773303131035;185,13531859891228;30,194612815011684;4,219669946835461;1,254604339407877;-4,909770978369305;3,040938953774199;2,199924273675404;0,30875442648784635;37,265124729972975;14,594688273144248;10,698687420915917;0,47562629535310114;-4,979012487262528;1,8859431482818223;-2,072817106072941;0,31661540617988;67,71488937570942;3,150124965293475;12,099705106287113;0,5042340934730201;-10,505644494859464;0,5710899674923366;3,3223433714201356;0,2092064913964142;79,44364815315494;6,89260446779754;21,09950998498727;0,6630798095244329;-16,85658379082105;2,0719591482723523;-5,528380660381734;0,48727811069436117;146,41975011448588;9,334523180675024;7,6969832774913245;1,422369973258283;0,04235981599817791;1,0074427373462598;1,1788546349006437;0,22067538950679358;31,57876129254958;6,0289088887657964;15,556999405568817;1,098747467897287;-0,006078651365291421;1,3506587450125787;-2,2850887415874275;1,0106348262542366;97,4861940495683;10,760756807745395;1,5051056717417313;1,809073604846273;-10,624372695398383;1,3869881796840153;1,9556034129524438;0,9128548143998342;62,338131847837666;8,462389566761148;26,168089732554655;1,9151391187317446;-1,3478060950256538;3,1492508237749703;-4,036139817877156;1,807378689238149;157,9844321096657;16,229772440474367;5,5697172478998445;1,5717550133191478;1,0742508258040804;0,567832022959575;-0,8633192203829084;0,43713310797020866;40,902789690981024;13,096191333301675;12,762937893243848;1,7349835209837023;-5,167258776150676;1,4193575250897763;-2,148298985677369;0,13339086267329428;76,74444631977812;8,174130001694879;10,497924330660263;0,46779078017650605;-10,076206282366673;0,4900468311459754;3,0359293470269377;0,24299824213377066;71,5804407931644;6,361386729066706;22,812656239844404;1,5799328407107707;-14,62870995833281;1,8157111677465223;-5,233318537646456;0,3236576246888844;147,5386707168504;5,0477893262761695;7,166267185673969;1,0625242962667347;1,8664407439549713;1,4331147566029216;-0,22592624842559358;1,1807821460107526;37,91621839187001;14,810180036840451;0,7119120358930344;1,9088081000875088;-14,684252128851648;0,9890857748609704;6,026165695675246;4,033616403475363;89,37829050030575;6,160569540908792;6,651150725306576;0,8271546702837101;3,130423278599033;0,22117048544455128;-0,673692568005467;0,5093673937839105;52,260731530152654;6,807246164903971;-3,8110078169446084;1,7167755849458521;-20,89362587243672;0,47850620651091863;9,347639458372392;6,926276685865022;137,92172947260283;3,861128969676741;5,435645548373655;2,1635705159460357;-9,070057427585628;1,5522266387390515;2,6389129801017814;0,3566162221197033;57,768091379105535;5,888208721080051;8,341311807205887;1,7530127394061406;-1,2437194184429017;1,1927452170020123;-1,4017215474144868;0,3323093751948677;54,93484232247141;9,67750299551697;6,3533418496179905;1,0279984586664206;3,017732058100613;0,5424600701120303;-0,17728738399699415;0,6904154749363943;47,177444696208006;5,092854457511481;4,1222146939190045;2,503073053755864;-5,010434398567938;1,9281147033983221;-1,1619363450851186;0,4063850392396467;31,589375228144064;12,977373898321614;13,806724529404523;0,8781644488831681;2,3687195572793547;0,9068315774375254;-2,4817804422958476;0,7692270125509802;97,72558356375524;6,806101268378025;21,04356838378464;3,520912065655106;-0,5129157951218617;1,7964054986215925;-2,5418007236623197;0,37474811925699714;138,55608664236485;27,438525177472155;15,17080332098943;0,6026297848304382;2,7051920563606497;0,40192958762337894;-4,651188896597847;3,0477144093110167;103,81386527511476;4,18122513221734;8,009364123821438;3,4970659784883167;-3,923454395837284;1,5654523231536732;-1,3631403933166486;0,30009472675484666;51,110184385355865;21,037328051583497;35,56073360230604;3,7164074408126866;2,547093828546232;1,9294435336260096;-7,133840590183786;1,5722988055344107;239,61806867774789;31,85697230028924;68,00949442653774;2,5222872863456196;55,076368149606495;0,963011747678252;-1,9609465166014988;0,2513277227994049;61,081707615451464;1,7256439576408955;610,4412881333501;17,29463976601964
001;002;Valoxy;Isometric;Isometric;semaxone;VM;20%;5;Fixed_4.0;Applied;S1_D1+S1_D3+S1_D2+S1_D4;2,685474543619193;1,873959077115768;-2,7999522516071953;1,4878053920412244;-3,6870490041912163;1,875846705993693;20,250520441478802;3,4723842013334987;2,7142395637203145;0,9532069414681671;-1,1341481818298174;0,5713034109780173;0,7375384418407326;0,2418336853617585;15,272579254183881;2,029864043441439;3,4627147608851887;2,68622794068911;-5,3135460473390586;2,3934565790748543;-2,6685311653797488;2,3924668889616676;34,53529823739592;3,9430150852628554;2,106306157624343;0,9936489433928022;-0,456316850338286;0,7409174657039305;-3,0221492764670983;0,2610714326277413;9,105872235590216;4,889273684551083;-2,1978300095320664;1,7651476208663992;-8,291413809973275;1,9896980874596837;1,7383353020316243;0,713239346507982;56,219306810468524;14,686225439406337;10,886094892442244;1,9441803517506073;3,058083745916074;1,079288845200594;-6,047928238984759;2,499025405303772;69,63941121526041;13,483010776174234;-5,6070781613014296;2,2424015110366673;-19,043021314058628;3,6293201802120945;5,532084634692611;3,6774661213289415;125,47444808965076;24,68205305657078;3,2185662512823967;1,4419376281756768;-0,17601079733089647;1,5865073795505162;-2,816612273535589;1,730957306120939;17,6545741176079;11,32104836053776;-0,35419277018992973;1,3454246283794864;-7,625563248365784;1,6922253224542552;1,1661688499367409;0,5437892165332154;48,85538565007345;11,218356901186056;5,451678944648217;0,9384516042876199;0,9752305676667318;0,6036138988151484;-1,5327778161485608;0,7321212273669954;34,903086398137624;7,229524356027674;-1,3540645491218668;1,7411466942534781;-12,713439091873488;2,773470248567451;2,3094576175389285;0,705323024210586;83,00926046409538;18,239268202778778;0,9596795733782887;0,7795547862102957;-2,7673865096258465;0,8516952188244401;0,45700448944613725;0,09412388980246558;16,719899398069124;4,322555195493191;-2,2241786489791786;1,7933772682816396;-9,451142265757753;1,9700340965991465;1,9058339756429667;0,6046058212062442;61,381147936830715;14,194059647354797;9,973410978044967;2,341427761376985;2,5842952759771882;1,4432452974349481;-5,807312402424761;2,385777109147926;61,73818693333676;17,10119534702958;-4,935286628730089;2,432090217062299;-19,19715219176059;3,953452779461158;5,931322807404646;3,9839190227542205;122,58584294708403;26,968547818779086;1,684487321576978;1,6208162292855084;-1,0935342793039324;1,6627275246468827;0,5073618694606937;0,16850689824985945;15,544182912427209;9,645425767394823;3,216414144401265;1,26692480586542;-1,1027505998167442;1,6316204570825077;-2,103766003931635;1,7916439549493577;20,260228820928212;5,611610685415138;0,9208362769009462;0,37275311070856626;-0,589844257002972;0,23636010057240503;0,23698209114043767;0,07070351454388324;5,673634690224157;2,1779358500552517;3,5271184791236303;1,0822133601846775;-1,8809662656955672;1,9713310252734577;-1,5145036923893542;1,174906532278854;23,749860057526284;3,7683336976421966;3,4192952504375524;1,1886164013696285;-0,35013672671555485;1,379498403216208;-2,660158311872511;1,2731278133689639;17,679975793406424;7,589669596384565;-0,23474492509108247;0,6469823678946485;-2,012494205523818;0,5373932338753445;0,3354180770047898;0,3720359480364318;11,814058778414724;4,6171260556169775;1,398327910007364;0,34482792210346574;0,044259421446622954;0,18135035140055353;0,16158597158386287;0,03439750101427399;7,97237587293196;2,42643434094802;-0,9749444547904307;0,8598114425813095;-3,085569734920561;0,6470560627319791;0,11604275920208859;0,39068824524798906;18,853537786431506;7,987438124940301;0,9201748517784273;0,5732790206470385;-1,264924671796199;0,36005415264205837;0,29213165027639615;0,06290428381381473;7,966331020604732;2,7304190073930084;0,46658035599899;0,9884088633117968;-5,312293207071862;1,4936875579347655;3,864008802411116;1,7659949086588693;29,558430357253542;6,987009415674582;0,4395880013441668;0,4143312658326241;-6,44586036319168;0,3838690524165112;4,613966903743153;2,1641072327535538;36,05485989608064;0,7936505230899253;1,9010282799408251;1,420609599505073;-0,8438864512917575;1,290858862033569;-0,4816307186432141;0,12325052054360858;14,681688136309239;8,294813290168525;0,7996833227493715;0,8355266692524755;-11,685749517849958;1,8598791908043615;9,890826764396575;3,4579667928627353;63,293996617969206;6,41802180670625;68,0885211222061;1,2167586905381766;65,49708847860038;1,285889811222511;0,09996301815912476;0,7537111405282035;66,92610547412644;1,2199293457693052;669,2027805104792;12,21197171298673
001;002;Valoxy;Isometric;Isometric;semaxone;VM;40%;5;Fixed_4.0;Applied;S1_D1+S1_D3+S1_D2+S1_D4;2,649310907157548;1,1670252012207751;-5,862157654080905;1,6680720745023392;-1,2282672727595318;0,11761802050952719;25,446612368526253;5,3683368263516416;5,705476989652057;1,4754325512322077;-0,32187734899067155;0,9289708064371611;0,8600473182993387;0,07975150371521249;31,071038347459897;7,230318748176572;2,9386526457425393;1,770741732651784;-11,471846845383826;3,130589383148782;-2,0784142991212335;0,16029894867470385;54,885699111314594;11,879970937519563;2,934845153627048;0,7327114633598941;-0,3048596488843315;0,9920986245857899;-2,4726275697631444;1,7118874752413569;12,122332879081974;5,81800411826615;-3,808133679157028;0,41593256955924013;-16,748981122874483;1,0896877170668664;3,130606235813299;0,4276759393716535;108,91247153287509;12,987637044606375;21,452133317537307;2,7792089671973215;5,2309624320991714;1,5036176364661844;-3,9908617060632587;0,8864821101805896;141,80670860202434;26,729318052966484;-9,06457288884646;1,413846117895422;-37,96757215327714;3,7157175064025956;6,9224063355584775;1,4459160648410394;250,71918013489943;38,16437672928226;5,655002532247202;1,8006066997671553;0,3166068615721894;1,5440076281063273;-3,9389543350071428;2,8274129943943898;33,86149607899481;16,366092762046062;-1,0887441789887589;0,19211817980733248;-14,24637597820706;0,7051415016488173;3,146191937403865;0,3177302823321387;87,1839278560386;9,36966366514443;9,331414723930134;1,4101545910103537;1,931377738983097;0,42943957845243247;-1,9930850572985883;0,562077672522514;57,12699285617733;9,26341039014404;-3,0356195182989603;0,5817417575071221;-23,140889641275827;1,9245050781663025;5,067392506929154;1,1049459892288207;144,31092071221593;18,218013277012066;0,9431806463563671;0,3105233410229224;-5,896638734976892;0,8849057323790521;1,8430044705543949;0,3912660309469476;33,14745756025222;3,521913218236072;-3,606793318683026;0,4145021865249308;-19,635447537587577;1,4215654460449318;3,6375665971600704;0,6664726585590701;126,47916552072414;16,06576292619888;20,22079682909665;2,773271426869718;4,786906009507198;1,4674016956532416;-3,8753189612045773;0,8735204202984589;130,39342598898867;25,765260220590154;-8,393699328190225;1,6582540245169526;-38,896930669606704;3,886002558542541;7,338361779599441;1,4982885397745298;256,87259150971283;40,673748802964646;3,744528111196027;1,5422177833936572;-1,3221762043537884;1,7668977869542992;3,377824060561798;2,4111982032352737;15,632466482888379;3,4188610464983435;2,211417620839657;1,0476043751941029;-1,9861905027150826;0,7184859171456436;-0,5267817815603155;0,1194577381069651;9,48172713473293;1,3914128472956457;2,602989693088606;0,24390414884699263;-0,42194287379129447;0,5124584054815338;0,4523305117917856;0,08555818068319698;13,652155639841359;1,3172034188748227;2,618851949797614;1,4853343510641956;-4,065760699414841;0,9881935597523485;-0,8317665933585682;0,19905325145131494;18,53380435689451;3,485306875130354;3,1464799768719;0,7831597896666512;0,06137691994877694;0,8259519959950065;-2,0277796969915953;1,316761255762745;15,099865804887589;5,115194685517237;-0,15124302833244635;0,5422365461949495;-3,7956493839699688;0,43735557508660244;-0,5897044658867232;0,0726023867967368;17,67897759562349;2,249387802362165;3,452717972670166;0,4776677228056451;0,31261311580079887;0,47047673835417025;0,4901482361483945;0,05685568647575449;20,574030607728094;3,5051933324560367;-0,4638561441332453;0,7722293929751181;-7,140898462900322;0,8443367015130955;-1,077486368091933;0,10613491562438584;37,91133975028737;4,622435017759679;1,1482581613131702;0,47480695274349255;-0,5666775085239895;0,4789247156741906;1,3247405323082724;0,8304512331168372;5,762826294194534;1,850609971371058;0,18718976331819154;0,45619054580780327;-12,135385355738183;0,7992175743351576;4,334650123997748;1,039878264734904;66,60794271464206;8,684927554320556;1,7513017291661712;0,315344620201885;-10,197908176106576;0,35481421796222434;1,924402152189467;0,473175177962223;64,13783771852425;5,390118441805119;2,077340435017047;0,5168292515780195;-4,224756721989528;0,9112214670649715;-1,026300491587032;0,14071865637589617;15,495526488033098;2,166312574667145;1,4693552040477431;0,805304207580771;-21,522086519979105;1,1562124279336994;14,023011784189327;3,957520313686081;128,16246912405003;13,658307261245163;64,62130390152868;1,6891017590826685;54,12179164400625;3,293548678981531;-0,6461643864398517;2,010702596787682;59,42786955192031;2,490564335400538;593,8411951552177;24,996736105285116
001;002;Valoxy;Isometric;Isometric;semaxone;VM;60%;5;Fixed_4.0;Applied;S1_D1+S1_D3+S1_D2+S1_D4;1,440265607280176;1,243989327181797;-6,427697799173518;1,246218037664996;-1,0518012438627804;0,12227584992331811;33,72639282467909;8,083258807966374;6,57608360863844;1,2084296855501142;0,20234685472924757;1,4555370033124575;0,9141493464138601;0,07962414995767535;39,54851885816743;9,356170550329189;1,2379187525509288;2,572873661111279;-12,908127323842669;2,294321061866157;-1,9000050673785829;0,16545308220343047;72,59660470069514;16,084782880839143;2,692407612337157;0,9172857471633865;-0,363895478148923;0,7456768091298117;1,4786166605772786;3,0265384310222467;9,940082473448417;4,089575202921228;-5,252796006413198;1,6543108930885075;-19,72979266757124;1,9034092002032676;3,2077503596680956;0,4380206628950546;134,59469603085208;18,681430053911846;23,431748847350953;3,936487706707924;6,328951457148346;2,96197791912746;-4,341536475562255;0,7838556215066214;160,11750223226005;37,59081356637084;-11,581747463561545;4,485804883667374;-42,51004196044131;5,6331527171914235;7,116173650644756;1,0004017987961806;294,71219826311216;55,89106719438023;5,289519606322451;2,3105114161865368;0,03301292751523954;1,5860263816545654;-4,813113892494771;2,558979433957527;31,219752397568037;8,973249803616367;-2,3505642117833982;2,5662468015441955;-14,94320961146451;1,944478930387042;2,9666261644372818;0,22501818240434648;99,5018187282497;17,775493310309972;10,570862316513502;1,6785099855549646;2,7235632020398155;1,3807498580980135;0,5171071619392337;1,433246127619472;59,71102833968496;15,291721373175667;-5,390177497187985;4,080584777124065;-24,81835514772094;3,383924833578009;5,10062026798604;0,523848815727862;159,06148383883226;32,75131142716377;0,6962107810239445;1,0768198572672647;-7,199944460386059;1,3098859538905538;1,624819648653602;0,3588200311019909;41,51405159819204;6,096951150843978;-5,107129140980503;2,2456881511388502;-21,348863126642087;1,9121731241688653;3,6066161378809567;0,3575454237832389;144,8969714738474;20,867286556929365;21,861064861105508;4,226276527523758;6,241517674903941;3,3210967199823904;-4,1507103858070025;0,8132629741136396;139,699998633326;35,249848241537315;-11,348646815884445;5,457309149670092;-40,696780310300184;5,56792099771775;7,308531732966334;1,0099295508226307;284,59697010717343;55,26274717875408;4,843288059461717;2,503327346762865;-2,6554541083657144;2,292535034140389;6,814369866054963;2,7710965539174572;20,41403120713604;10,38629949663784;3,146898331338232;0,739988391223145;-1,5621548519084096;0,7128011484315918;-0,858995908237306;0,5086589150695879;16,689377574490123;4,556695657000409;2,809835147938712;0,42455284057671594;-0,509706411030995;0,8140726175508155;0,4674662144072981;0,0705435513306353;16,680413909406646;2,5686438436126884;3,627987925097478;1,1135045091500408;-4,0693284036303226;0,7655572540931916;-0,9961154028657411;0,14907837725331405;21,67099802378101;6,672764970205587;5,084262042550951;0,8611887411511967;0,6292378198519888;0,7748959284279895;-0,15330083035815903;2,793241939939486;24,37332624777813;10,118129632989394;1,534346397928696;0,6455292970429012;-3,3240115784668687;0,808241193923465;-0,6884643377988788;0,1152710994918879;14,900001385676552;4,902280995493075;3,975125023317413;0,4608724894830555;0,27890341953263514;0,8023676598256015;0,5504287720196951;0,06866765284699029;24,25837771389841;4,120436310563984;1,2554429783960608;1,2799849443763278;-7,241142612940491;1,1125019299962426;-1,2501459239294292;0,11649366094512907;35,478576572255896;6,439835731520677;2,451327076999983;0,6146374231315385;0,36924729949923674;0,6849783007638837;-0,30884750569635716;1,501437797555231;15,993827736687251;6,887071288593215;0,8845210317304859;1,189915403817384;-9,400961858717286;2,300474162321585;6,7182324025927755;3,2819488424179144;51,38031107813315;17,645098592735824;2,153816601094705;0,4770330396626037;-10,764082575237014;0,19128946718112064;1,8099225013614366;0,03942439673348738;69,11268453635397;4,035501822405996;5,54796186211723;1,8026430470974055;-3,2835133480611454;1,403918098459818;-1,2809640445609283;0,14344735649619292;28,851334905635802;5,730166148847533;2,7765414205423937;1,19494710816542;-18,678143286641465;2,0871203819454376;13,304160373625058;2,253034465022166;117,81050881792123;18,409314784534732;60,989371748424084;3,8379485225891448;47,68456878494508;4,487272647765399;-2,084692475313654;0,09809788720196887;54,673459272674904;4,342648930021725;546,1841516923738;43,47626373021342
002;001;Valoxy;Isometric;Isometric;semaxone;VM;20%;5;Fixed_4.0;Applied;S1_D1+S1_D3+S1_D2+S1_D4;1,7108338547401805;1,287857805705566;-5,377137368444299;2,7456110502010147;-0,8123694236707293;0,17464308004388546;24,37645146097435;4,396861453860066;4,694590369732029;1,1971275621140938;1,0436059670911382;0,4796593600002363;0,4414173490926784;0,044658066067728895;28,49935238643287;7,983206306167521;0,6325959291140648;1,749208628434605;-9,536107446512311;4,560975704605217;-1,0942807053070673;0,26939446452551996;45,909295656361024;18,764885100948852;3,220232941316148;1,2271627666311131;-1,5040828884892665;1,1529878506726;-1,2667751504594784;0,6515535384679456;22,381809801882227;6,345383967410688;0,14396416194043427;1,6479840351394965;-3,4707524910924006;2,371870395992597;-0,9190568845364775;0,3927818303088054;18,677113693110325;11,020215441490466;3,626400487135952;1,7867894866398857;0,28970889335208605;0,8251104459288601;-0,24481839509305758;1,0485514972178909;20,89406976025762;10,035441648181704;-0,5236451718430034;1,9420737058034947;-6,500600031883417;4,239764120752526;-0,4196349530975514;0,7631932731613777;37,81534651955964;21,451174416722253;2,794077474343552;0,3333105138425591;-1,231813775997048;0,5761093166365847;-3,116749935625587;1,8489161812005177;11,485971566376667;2,721036229003403;0,6798267596273788;2,4715899562360875;-5,054055797008111;1,2369047279134016;0,8967605556370908;0,2903862209076674;28,36858278696069;13,59483519665253;1,972073744518711;0,751853883228017;-0,5163015511863982;0,49188220161678264;0,7400311049186866;0,7488394651100462;8,308411789767828;3,261598633327819;0,2871376308447375;3,5856574240233274;-6,191049277860426;1,6955075909551367;-0,9287582995446109;2,681199560741434;33,72697664945358;18,470808006755014;1,6951686993476376;1,6543521950196434;-4,1725232840577275;1,1739638557968899;1,109038796649254;0,21992897776672599;23,86568864675568;8,753803661384653;-2,565888740926548;3,4450674020088146;-5,705065761586087;2,6987669061496704;0,11712315634491319;0,3887789082786468;44,32828378816333;26,705802195161223;4,702642680828225;2,5406946415996794;-1,7983590475112632;0,8729098543602907;0,7923153867449879;0,2093035819607039;21,230987599867184;7,2912539065151645;-2,280760412552065;3,0081820203543344;-8,883512933228852;6,020883418574767;-0,2563234484347811;1,0026287629289823;57,50169852377911;37,95486344861688;1,1401590019374854;1,1421111170207163;-6,394977514034411;1,6036950901885565;0,7872652712386643;0,11471985917383419;36,51548825262105;12,404080406030177;0,7008106906821003;0,6494495087044246;-1,9295165051670746;0,6694076444791058;-0,6033320621284054;0,437045751239702;9,881939171135839;2,6940402621745725;2,2614194613840253;0,4536282231153117;0,9504691944545994;0,5017630012811364;-0,6886470597758839;0,7755453037540421;15,954309647583461;4,419275387695083;-0,5879976820062373;0,8247729656058611;-3,2321479864270737;1,333376366468909;-0,303285365690264;0,03811181686164092;19,139707262353692;10,12767202178287;2,630735874169628;0,781298424912741;-0,8684785628011401;0,35107269936666635;-2,3842656544581606;1,5382674712216475;15,438377541477584;4,1060840871929045;0,10454133851264424;0,2744209002450051;-1,6608295498674213;0,7916523882576588;-0,41710219453750474;0,2517188094556224;6,420728248505514;4,031928629539533;1,5114324813765445;0,5023223790270583;0,17190149795686305;0,14115940516012357;0,17987173244458485;0,03441135129853357;8,674808449482233;2,954425172275886;-0,1925354101306595;0,2709004637240884;-3,024677292780413;1,3067334079090893;-0,3868329536127511;0,13699289760680652;13,974017255267;7,503819652292951;0,8745915543580891;0,31623806003489624;-0,36574344107288254;0,40694634362313764;-0,8831293383637974;0,3324583898630449;4,705131891264797;1,7172384587065228;5,334493640421238;0,936701429527612;-2,895275651229897;1,6302344281824388;-1,8133519386635626;1,3921564933173671;33,633890864302444;4,7992625413207985;2,358566736695553;0,25581153058147843;-0,13458013047297196;0,455143563060537;0,3489156503048333;0,06097272272261982;11,500233719773913;2,062624211164146;5,257964803668052;1,027258119341808;-4,9087609011755;1,8476495533437263;-1,457411496667078;0,15493608430903943;35,768528319492155;4,07506466746831;6,057675455897476;1,2762484697466139;-1,2395716218745387;1,5174256665332948;-4,1751576898961025;2,8475679769173965;35,933749477587845;8,913244193906435;66,58220177058105;1,9523809585311158;62,636675742571924;1,019788357266481;-0,2002676662073119;0,5366251411338665;64,58711397278923;1,3771877470768925;645,8339652114466;13,791625424945554
002;001;Valoxy;Isometric;Isometric;semaxone;VM;40%;5;Fixed_4.0;Applied;S1_D1+S1_D3+S1_D2+S1_D4;-1,7980841360111242;1,4496510988596247;-16,40205055907601;2,9308372200246113;-2,126490983786615;0,19061770321530538;97,9836303066344;21,215624457289497;14,846152727252823;2,777861105752896;1,4357367470794329;1,8443868474548077;1,8968339749798666;0,19619184175670143;82,50909160230019;18,861367948105453;-3,2338208830905573;3,2509995345085314;-30,970354882731293;6,0915875932961026;-4,003808133489933;0,36693357820583816;180,13294229656242;40,609078599272735;0,2076977068665642;0,6546914657573774;-3,744601149513044;0,5666428965612343;0,48061151303967603;1,301320213099432;17,466053585704067;3,6031983883390843;0,18031988100389978;1,3673187650898984;-9,874845683316046;0,5203294392754453;2,7306860254798933;0,1736283397956406;59,78911502525293;5,253178227614743;7,4139550739992;0,6822415054454564;-0,4696828385570296;0,672543833844224;-1,0123867555069999;1,7003086763965178;38,28500104166535;6,01731418687629;-0,3111870220093886;2,281368764638834;-16,38254139456246;1,5822379445910848;3,639069167727226;2,7982730901630704;96,98294739380339;11,128820384826431;1,9286898987748948;0,7571625496445933;-4,580562726598634;1,4912243074625777;1,9833736404279563;0,9976238544955213;27,142699268700973;11,217010889122509;4,633521710165818;0,7750749068827016;-10,431566863631014;2,5132707207546616;2,956846893178065;0,282131645540534;67,19144565201978;15,79265092188064;4,065700096410163;1,4941201552961694;-1,524793979207932;0,9374657043866257;-0,5247542101588604;1,4361760703650683;15,098561682378692;2,190535317556849;5,843381261141645;1,5322708585987275;-12,226624189446673;3,4557991265108585;3,8397737918154227;0,8077046289146891;73,79795967299829;23,332333079108658;3,44617939099082;0,39547595709278593;-9,599815290165889;1,5127746553900094;2,8538687380057715;1,0851780656093613;63,8137657214967;8,837296914392667;0,4153555903337033;2,3309256823228224;-18,61607835279266;0,3287718865529951;4,836433584316504;0,8144109341805649;125,08527533439755;5,215432869933581;7,695100557547775;1,109043775580612;-3,537758641747387;1,3802394491882317;1,5119056800904676;0,1177470311393919;32,004921471028624;4,305708223137441;-1,0911457886351232;3,2611616025770096;-21,89077865935456;1,9208053019752354;4,870874992242571;3,5480174780593643;140,09788232767932;11,455391373828373;2,1229254560969713;1,3910007610934627;-16,484826041360947;1,4283813280583446;3,9357616754852542;1,0175754746517225;112,67067025142515;10,789847926405017;-0,2635836665434963;0,4153817765841191;-4,06722744236649;0,5094772932599073;-0,5695598002905858;0,07187481662339465;22,605782168252823;3,7237052672388957;6,329716905796591;0,9482987716387512;1,5699691061198844;0,7078979979164561;0,6662368291318681;0,06088704497689848;39,8955924505552;7,0598094125918465;-1,8335527726633807;1,046579957399384;-10,130479467658215;1,5542212404141311;-1,166142590820316;0,110506101899478;62,37587199506531;10,302429079929853;2,740165514966354;0,5063796664953838;1,017328915199288;0,5382701116952069;-0,22121253461405255;0,6565924487014239;17,430581719736985;4,909559731680077;-0,11623057644918933;0,417919315277051;-5,32350819297333;0,5730992769861056;-0,7422847981256534;0,06262308335439352;26,17809148548015;4,024627774928937;5,3194820992767164;0,5331285850749051;0,05386850336068298;0,6694157558011388;0,7108017939793392;0,032725782390558705;28,736471645574653;3,8184393652028246;-0,17009907980987232;0,8593868965840503;-10,556114404421866;1,1769351330717488;-1,4336865956600002;0,09275791769799877;54,498663138258124;6,861925105971858;0,8918672643108131;0,3452215834576325;-0,40795200374222407;0,7402369386418175;0,053701737520055415;0,583949084761233;6,186681079134083;3,0167059938882383;3,0595877543997356;1,696244963606833;-8,280619656562497;1,3929544124439295;-1,7089643589205665;0,31734074859926303;40,660481993261705;4,802183482729823;10,252988039770262;2,5140531748670347;-0,21339241148305846;1,1501254375684402;1,4921078753838772;0,3908860863208878;52,47703185833194;14,49711766003451;3,244791809815409;2,4564650692103727;-18,227584884042745;3,500187300203336;-3,13577869884119;0,6431536697490076;87,8516049090064;20,124976449207566;4,23333010810405;1,9497029288046037;0,415154273616543;2,3429890160953004;0,08713182019284163;1,2910313538762404;29,22007130106068;11,281515495994306;64,39067395351063;1,860380593099641;51,8262153301871;3,9702125200818186;0,5771317984522597;2,776407485581903;58,45363922936317;2,6921416547725907;584,0244497822733;27,061406463024618
002;001;Valoxy;Isometric;Isometric;semaxone;VM;60%;5;Fixed_4.0;Applied;S1_D1+S1_D3+S1_D2+S1_D4;-2,898005263688751;2,1135997774326665;-27,89751588134522;1,419633347676264;-3,3815673544527116;0,23009689951561704;173,57967689345045;17,81771677185546;23,317812705479394;2,464733592593861;3,3317903751694624;2,857260549167829;2,6358293896633223;0,13991985790958925;148,50212500401494;27,34337683907647;-6,229795638858214;4,929719111458939;-50,98515692826026;3,5225669087435083;-6,019464773749894;0,3953464391445968;321,79912010729015;44,09307686086533;0,7588796093807758;1,334049958242655;-5,298932703625611;2,0975313278097194;-0,2723537095461366;1,1345254043947197;28,754183651782476;14,75793297757711;-2,4679260520532367;1,9870212453225662;-17,390872121375498;4,067184700333101;-2,2344251647938487;0,37747298821986947;105,90119651394464;30,016762887556435;17,37917061120465;2,150478406911113;2,504020538629498;2,347702166570943;2,1748235545804;0,22516973644842928;112,47109386561274;23,992893021442377;-4,971946590682736;2,657476480217314;-34,626596192046065;4,875906640020824;-4,268484221770733;0,4441712675867172;218,20863344271365;36,37427694368275;4,339427940437053;2,2664610824549567;-1,7777550572755285;4,714642246259416;0,79934314446146;1,627470527899754;36,46233356258481;21,973681558262694;0,9671784298912499;3,101761559967259;-10,252789740731007;6,274287028011143;2,397241827050176;1,9735366033685302;66,31359223485151;56,374095810788845;5,773568037464736;1,9066206414149616;-3,187076446849475;2,4455650616145377;1,241178353553961;0,2703314177567152;31,25189960279173;4,4877926896726485;0,9138011449945163;5,59661443969211;-14,554070126748101;7,587575721646484;1,3800404860988853;4,327146057589142;82,05166387114;67,51875481700719;3,4969883970062257;2,4430719974360606;-10,368307728080756;4,537129592155732;2,7720407671826797;0,986514093041869;66,99791614636953;35,964978625517546;-8,622902403032555;2,9595299404953987;-26,486002122002628;4,296998153398146;3,3932696690710116;2,9593556527087435;192,65515063214178;33,43071057873851;17,311459117052987;2,6714113103168855;-1,9478567790096482;2,736919734157796;2,4896007632348853;0,30822322323412576;94,17574741932603;25,15631180194174;-10,662671716276813;3,8438737803598846;-42,27819483777829;4,773592658669265;-4,574418391699462;0,4238388147579402;281,310026770502;42,920497100281416;2,391544932796342;2,5169753846825316;-15,798175893239238;4,366871746430359;3,1649996244524687;1,4638054853321485;112,9295652795848;42,45577658574549;1,4283999654357569;0,6867494731524233;-5,007541668508033;1,427990238513907;-0,9356954715051667;0,1574992338974163;27,927946163702348;9,226592195140698;9,633366426305509;0,798264956847068;2,4803283429402443;0,977254120838084;0,9405665357106322;0,04225816589534449;66,28315609066175;9,130873471410167;-1,0519283775044879;0,798317756264549;-14,481903299854675;1,1558101008584332;-1,810333475868612;0,17327966149318913;90,57655379304872;11,08036101100837;6,07396645678949;1,7861101655229314;2,567555486379656;1,7514811317064605;0,3053428066921565;0,7508764563239873;42,42904266221286;18,32623092164137;0,687236599007176;0,5574788057356076;-7,5858291465608305;1,039358508814395;-1,0991272051847067;0,0870897383477807;41,01063319290283;7,852946759601171;7,364151352880134;0,528435858502304;0,650093120175088;0,9237742375083245;0,8751831512984047;0,025970076868134198;47,05690585061782;7,267832534714716;0,037143478832087906;1,080483336121682;-14,880258266452932;1,0565079049872768;-1,9731852061710355;0,1065527867679669;86,93039563244834;9,856528294874087;1,869392061011423;1,1224334604513047;-0,7021082164217909;1,3652706687231189;-0,26281446257590774;0,6300363754741602;15,468951253628372;2,795386921723954;7,1618469645794764;2,527784243233766;-5,340371426062228;2,008316174497261;-1,4864216272577795;0,4258288972484654;35,645951796622434;12,371153714002773;6,358502832421894;3,1486268580987775;-1,9422180430961287;1,3431472505168627;1,068614250166784;0,3311454550718678;33,449112819108244;18,84153962784753;9,01602755691002;3,459740017869425;-10,215831371778782;4,139276241505352;-2,354492756351882;0,5490858003853587;62,87373370570268;19,094843259094716;6,092412654077162;1,910168154373952;-2,288566142952281;4,159390937345169;-0,24682393643753545;2,466172574725369;41,77734099209799;17,76478232148318;61,71977629634207;1,8945774331788265;42,464488088952386;1,2921136260888166;-2,6518575191955147;0,19594846775681876;51,27147825531877;1,3848154679790972;512,0447767028919;13,985095050687775
002;002;Valoxy;Isometric;Isometric;semaxone;VL;20%;5;Fixed_4.0;Applied;S1_D1+S1_D3+S1_D2+S1_D4;2,716676539110746;1,992590362782259;-1,70949761265661;1,2201678046789115;-1,1795094066624472;0,6825166301527921;21,771759954133323;8,943924989254562;2,405344364063539;0,6221035303009759;-1,275350724186559;1,3837630701002577;0,43679030119491946;0,05102114989209998;15,448752087238574;3,8095541981105643;3,5956056954765643;3,4028817457142755;-4,005415889107615;1,8719700700360054;-1,0436113130333915;0,30300701087437887;34,05640499523777;11,323289482208457;3,2282286273075242;0,9224895093270583;0,3513653615328417;0,5922057731347709;-0,5253200047637285;0,8636913334005302;17,318993543553844;7,336104294741692;5,019159274575943;1,7089963433329343;-1,8919698157409013;2,560438955101498;-1,3432739140034673;0,4633908814470884;35,39897114633587;7,5686928618331875;3,9573167384556776;1,923523945272685;-4,445029766376469;1,5339285903096116;0,914756059531368;0,060810779535752875;30,43059045940952;3,1467938248718053;8,984345264361746;2,8220178790822197;-5,849286554196579;4,427460071270861;-1,8551741016337129;0,320503906760645;62,436899293074035;9,913095478175178;4,448126540245699;0,7454277008540681;-0,8017820878488321;0,5324602508976713;0,8442462241335562;0,12517767638347443;17,28512334660197;5,729577151303788;2,753146625913984;1,3433037766763631;-2,7677161600969002;1,642712042861716;-0,30273731270334886;1,3691089616563188;14,147096402866413;5,0577608131401295;2,4303107579728467;0,8313895826082992;0,19317273968165777;0,6028429439062786;0,007737613740855404;0,48142540615128554;12,838232781318274;5,1195553243616185;2,4303427944486558;1,8643215184250503;-5,19216809372341;2,4503621669243527;-0,16531353930585105;1,6786123027623034;20,873914220198692;4,988506903485304;3,2737097732646347;0,8639215923914638;-0,361432330727968;0,8948319724187576;-0,40644398865526243;1,0089863311471219;16,86063562822286;5,281658830939056;8,92169672185388;2,047275979396;-2,810449143290757;2,991887769508738;-1,6397967410482344;0,3849343750231443;58,789273423133295;7,119314273965973;5,438145424489375;2,762164122696713;-3,0980330895586605;2,3218324718958616;0,9072442021789213;0,12188075542795923;29,90524425109942;9,853655005586393;11,782136949723428;4,00076344120788;-8,21424680332838;5,669880256560109;-2,5348652073125764;0,4588049856507686;82,38571373486646;11,532353532502938;7,581716928856356;1,6181664276275083;2,160298241002488;0,8756727967743423;-1,8956696642097703;0,5410066534145337;48,34608418100296;11,295571834683747;1,2877734937224565;0,6044490384633269;-1,8443859420783242;0,3030785020378813;-0,3882916003759078;0,03744111447671138;10,542652436450524;1,9614411246292123;1,5866386591139339;0,18521550851193447;0,6570628612116334;0,10337702293984187;0,12968736865715497;0,02194116784322355;12,200984051686516;1,1889600060716639;0,6070572622666802;0,6192836829919826;-3,3982729046939566;0,4092134436799942;-0,4849481283980325;0,04435551676496159;16,913531385529275;3,7015851660589436;1,994497739362765;0,5903890460575989;-0,3028667830909679;0,3242030690266956;-0,339151874421477;0,06431389753772816;11,0093128951242;3,359379675427449;0,3014731271348975;0,7799030605763844;-1,3588743088776918;0,42726116633024425;-0,13171059017144351;0,23611808080300062;8,119164024418671;2,5140500725845345;1,8336434294403456;0,23180948740428245;-0,026677265715444997;0,48730987856004954;0,2264546667533765;0,02414230703687552;12,007389960510853;2,5165537867877705;-0,3513228149956378;0,5240839834062386;-2,8993395652333858;0,8989267184177411;-0,2902631562496153;0,057953536281615155;16,752357657927067;6,46942156280017;1,660626532464618;0,740797702059297;-0,5391649626312472;1,0318693098481213;0,14291490445153648;0,38117995580613717;9,247680063852542;4,267373736715688;7,894098874423558;1,7069133869336324;-1,672497267247691;2,4704875252956153;-1,420258917325069;0,2210683369899236;52,14906856605313;7,69467857475307;3,9562003032432997;0,9852504802502186;1,3105809617928945;1,0951044783474897;-0,11246482953475412;0,49966368128923555;28,27478821592273;11,307625425917157;4,857717406156182;1,943496861738625;-3,8113400890411406;1,8199522506857917;-1,2855085013033574;0,26106489597390176;38,766305696151974;8,715750102082293;11,096733856950198;2,3527534569166066;0,38535555076013106;3,2858729163043465;-1,6313784673887337;0,39479768498366774;75,2478750431515;18,503631523499433;72,00776648725481;1,6940145595279945;67,04896097028306;1,0973258093054947;-0,6210612528133801;0,06682839931753531;69,25410893200808;1,6443975090748162;692,4925411014975;16,491848249610214
002;002;Valoxy;Isometric;Isometric;semaxone;VL;40%;5;Fixed_4.0;Applied;S1_D1+S1_D3+S1_D2+S1_D4;3,83243940558461;0,774017203794899;-2,7582089687612124;0,29237412210785435;-0,8266226334559803;0,08684953729811196;22,756216102221696;3,27845187553314;3,940144079650294;0,31588958573583376;-2,6591694263085;1,3822513906270193;0,7607874436788302;0,14423010167731365;23,150042091309853;5,08170314410581;6,482110541404062;2,0817063699799263;-6,6445854035277305;0,2623417841832844;-1,4494412734679685;0,1698693145751041;43,106800985523236;7,726822201450398;3,807042456719958;1,2038791535958047;0,26512322291796747;0,3455025358054407;1,6821924562276753;2,220739199512534;15,024233061693923;4,199800758174648;4,7056254812387905;2,579174365284149;-2,860494567563788;1,959857070421416;-1,3727308810430077;0,5066490250595492;29,18574936069377;13,872020305960337;6,640512159303972;1,1843126676634501;-3,6134922273041155;3,2584133180860566;1,217406446984022;0,3292166229303406;36,27283019630229;9,090381926286854;8,024692693116906;6,0303090632112735;-9,499759305310286;3,042861328840106;-2,212329345597664;0,4469391998346577;59,51667364702602;21,111653472649042;6,256301213909163;1,5103605237837265;-0,09479813386819062;0,6997134447054321;1,2473572144376892;0,5998113655387814;25,85258875870803;7,456299095529089;1,522807052786201;3,1747455448506976;-6,404138842369131;1,3331897888560944;1,4668097643540605;0,39527146431876437;33,961004790228884;8,669339298376135;4,675364981509821;1,0991813822103702;1,7536466609707932;1,0900655811858382;-1,002942914408062;1,0622654735157344;33,06696883240663;10,981926614951467;-0,3697506429670958;4,334657341223534;-10,54877594589791;2,604994336569065;1,8823482027638239;0,4760756297710617;63,9865985444721;22,1387901536009;3,5452102739965397;1,9756549570377406;-2,2704759561752637;0,8464406024100447;1,0851312035160656;0,3575643284397396;14,279307799052194;8,423647975340728;5,3607532623282745;3,18606385405874;-5,6611340044794725;2,1471645162888477;-1,7962441647061447;0,466144997000501;39,98617847791286;15,36196176389253;9,442928282423633;1,2606947376072912;-0,13033393561282564;4,634427939194402;1,1884955729888766;0,33089467967776626;56,119554161830095;17,17222044626115;4,67066099121659;8,05842838320215;-15,074381931717776;3,351484049074473;-2,3553606087186667;0,7020694329355013;82,1050111158731;25,096452635545404;9,74273012145249;2,2396366865523034;2,533468555870424;0,9469457346036894;-1,5682388415972992;1,9199052771334784;52,94311433842216;6,95166441589434;3,1247428191658146;0,5419522110555871;-2,0736936502429937;0,33914557700185494;-0,6276769565970495;0,06777872685568415;19,875742086118915;1,33413345760903;3,0236431662329513;0,2478890439278994;1,3948401305822835;0,3942082211075017;0,23847120497042207;0,04290685939151976;24,67663985083633;3,552118831910753;1,646307254759391;0,9497951780564015;-4,996575839867878;0,4934031683520167;-0,7855410964006648;0,0942393311134748;24,95107813552557;2,1903713473528965;4,938524810595288;0,2977282802854983;0,8227046419112412;0,29000068633504417;-0,8313151003519937;0,26642662787013216;30,83757155628133;2,218247516826442;-1,089494512596577;1,1244717281027776;-2,8545393615057266;0,5754400509076273;0,8960428470748424;0,8323810328944635;21,869109508514367;6,301641816331893;4,01620777036619;0,15338831583078053;0,5664351632528192;0,4046803790594482;0,5057506042841204;0,08049247344589544;28,29062571163389;2,000342164886205;-2,6739297797764245;0,5651196929513773;-6,519913985202825;0,748814532566906;-0,4882411481147182;0,11159151354917922;49,971145832453246;7,3513850643947345;2,758223278038627;1,0389156963712363;-1,5768069441364623;0,5917510857507984;0,7083791428507364;0,09879182260952436;11,657146334382734;4,202038513341681;10,667502249126017;2,2480307866091724;-4,4739373697431635;2,075511898328102;-5,152016133957099;5,342920006025044;60,91386437174864;9,47116666564899;8,874312536147308;1,50120187443004;2,396213992721106;1,6787330084182388;1,1019325441411767;0,22821409628774755;57,41557543885078;8,723012996335921;6,746219181290864;2,0506345392890264;-11,832547880329326;3,835529617283983;-2,7669244962234862;1,1529056069786008;54,98787360422456;12,213812767312035;16,493851192588963;2,056008611613019;2,326286995686787;2,6695668854086807;-2,3436669427675287;0,4324967511475276;105,163544527674;20,83079466005019;63,23515651879732;2,8244206870668127;54,11654171376608;1,7280373353436702;-1,6323331172890434;0,24205683275918943;57,15803285749439;2,279546438714261;571,3352019939891;22,855316437201438
002;002;Valoxy;Isometric;Isometric;semaxone;VL;60%;5;Fixed_4.0;Applied;S1_D1+S1_D3+S1_D2+S1_D4;7,368546169657071;2,5340232348151797;-12,608675686496593;4,539325686812919;-0,690051179302363;4,127469936723188;53,54122471317608;19,93630035092337;0,41219941907185087;2,3459895260095793;-4,778366697531636;0,96796455182797;0,05581350378266057;1,3068918637909233;25,18445885812621;8,289870233530145;11,629237991326564;2,9260127733349193;-11,900293062811048;4,721386003864639;-3,1068839800447767;0,495987667422885;65,7814089306325;21,166207412068747;4,499275845705999;0,6336689980923452;-13,319630592451176;5,355571632995282;-0,8851123528920113;3,556012465926161;47,638564622181924;16,117298462247565;8,643742159753407;2,7696755348759026;-10,553264406354703;6,082591003713784;-1,1330440467104954;3,172492886029062;62,14737828297149;24,01077448227727;5,533029577803702;2,5690500537725813;-2,4890801317026208;2,300808059670082;1,0684053260812492;0,3515906438457201;30,226558039881695;14,287174669545946;11,092522154420795;3,0613291051026725;-15,989046369867669;8,180681764270076;-3,6452245209764187;0,9981291136398918;75,62504684778939;15,61552441360947;8,910558195190244;0,760570669009727;-5,67181744808616;5,0453189178248685;-2,9082305537830107;5,831878478595325;62,56218095823326;21,543248184991494;3,1189118361713333;1,4107075730751126;-13,857349840070844;4,845741568200588;3,4986994583665565;1,4503036605123096;79,91014693953846;27,180442782968562;8,874054026153086;2,0794356266904437;-1,4843343749326923;2,3810557389617917;-1,7062831908862428;0,36674600862967793;50,93584951024666;13,635525730344183;4,532118238990254;3,6495462667015945;-22,5186404315511;6,9958136931806285;5,44979937157799;1,8902051903681327;130,39590886817956;40,646006653894894;1,8546563818937636;1,3683835086034115;-5,8477060602931425;2,507240296900845;1,9168107782441415;0,8030483951674908;32,79511877067412;17,57183655440205;4,388220457614312;2,3886870268716653;-6,722847568069564;4,879394959455891;-0,9457186533853562;1,5928764250532024;34,89638239135113;15,705856237917944;13,229552571062872;3,3640575695683372;-0,8304490958601878;3,0131078486012353;1,9053887614190679;0,47702216079413595;66,29979763831037;30,051650551349386;4,881860017314105;3,5741815937437336;-18,8740414718388;6,8584431888558015;-5,737312539123779;3,9622591335820285;92,25821197330363;42,47881247175822;9,45294219423769;1,3926585556599365;1,2071132121697894;3,5003068568499356;0,8645424815770664;2,3249940978056136;59,22443600894985;13,34714343815063;6,607556193791842;2,276153575035003;-1,7865125009713352;1,5184573362531888;-0,9790522309098313;0,21155520829874241;33,98080720517928;14,560052973182785;6,014395048298209;0,9960230725053286;1,5187904808294554;0,5071621646139542;0,5093204056759946;0,07509728477345452;43,327507138002446;8,13848953817093;5,080535520439382;2,5676938482075853;-7,449361688061737;2,3357006286318365;-1,4728072222622077;0,2842565210276603;44,21529462771277;10,45647238472636;8,640553103224107;1,9355450766326208;3,6762760426115606;1,183733498380037;-0,6931350067053822;0,09328232702666626;68,2588798535451;17,31953938535746;-2,6923774373758604;1,2565027323537665;-8,341983075088049;2,383810847806488;0,07566063395148977;1,158125054440379;54,693172266996555;14,251398553864552;7,90788284193294;1,2607100826334008;0,7635888649657325;0,5531649230499543;0,8698084932179901;0,08230918396366488;50,35824318968394;10,923278521105184;-3,664883808383577;1,516951915096398;-14,938729350516155;2,850675670029322;-1,5357753922557975;0,46140103613417566;105,0514154566805;19,515264855752882;3,3602769351540482;1,15379240353941;-3,1435366962821156;1,836994484346866;1,3265910727026269;0,5329983814702637;24,677185705511828;4,5591418896945;14,358448882997425;3,1261345020694886;-35,441652074925415;23,83145661131207;-6,422854366325547;3,0039887569660744;147,0079499207949;67,38214467198844;23,57934297546669;8,527499444032742;4,352853056539632;1,1502449903777214;2,375032758813293;0,9610386604802167;124,322545339922;33,49204984728067;9,962579266615744;2,2263045851787124;-58,78351316862616;32,24218968507889;-8,573756882304938;4,109401798259652;179,84711104916323;84,33190144048272;20,80014349180638;5,222939557068642;-12,24413656528144;15,584452296044908;-20,5237250404656;13,332522935277257;160,08982277315172;35,35425587438182;62,239723152857;5,107882360916414;46,90683275475254;1,5122196640799515;-2,345142737721182;0,7824153970313444;52,209479771025954;2,843045253028613;521,5343480373638;28,360739723914765
003;001;Valoxy;Isometric;Isometric;semaxone;VL;20%;5;Fixed_4.0;Applied;S1_D1+S1_D3+S1_D2+S1_D4;3,504773152136184;0,9431952511938815;-0,9363555372497305;0,678231335954001;-1,3376554654377626;2,0715429940474155;12,592052288701732;2,434863608702087;2,740555114197103;0,29926839655760423;-0,3646638138719127;0,8413988177036739;-0,7269769563653966;0,42715305102036055;16,16095189612447;3,2698506072408047;2,957853292459414;1,5166359840116934;-3,096892511992729;1,28744461993331;1,3921268464150294;0,9136738466645431;14,899178311978343;6,862091958302958;4,691232829765957;0,47523712617104197;0,14764386452784392;0,6071910249598742;-3,2547192830096185;1,9348102076774616;24,395080742207238;3,325043952918401;1,3320347835060322;0,26078330008724016;-34,84490399892212;2,578453418072397;12,193407132734619;9,183063571402933;216,25956729974982;29,566186840872184;14,586598600067585;0,9847742590922446;-0,11711758391452257;0,31477060949399804;-6,795668954552488;4,011653839576329;87,47146681757116;12,965702099430683;1,3662492102603703;0,25927757926366823;-49,20003745376955;3,1765602176057595;23,009159241447385;14,705413767176447;303,56424567085935;42,428747003000616;1,336034368306701;0,3263532116586721;-20,507938607689493;2,01577304111169;7,360795153149462;5,422121710004289;130,13450037877215;16,539467643353497;-0,6927028982906159;0,9800396925741938;-59,09475754319743;0,5614991388941575;36,88216110194148;17,502002089680285;421,2029752855775;20,167129523191544;2,85879567530276;0,8776686113309601;-0,5489782512596078;1,5164274451816215;1,1556178089881548;2,053642259218139;15,398856626756139;6,4834416790873455;-2,5166928909923625;1,4063082589974203;-60,01972891415919;1,2871002039495518;27,569498467817244;17,888071201015197;433,33469853187796;18,506497594231863;1,2186225238713502;1,0320155967448061;-58,54010198125452;2,3708232549033923;37,62825427243953;16,45600042925441;409,7154129257826;26,01156404873103;1,8280121326089454;0,8082688152801146;-44,84389588210367;1,1092955801131403;28,190207520934763;15,967279640368739;325,4468632902195;15,717766584974818;10,864187646479847;0,5365507631480895;0,9570660231058256;0,47907111146059483;-1,4866517094502745;0,3074662136874477;79,1561163910889;5,110556463813056;0,6021422995815638;1,1101291670566957;-54,426455103542864;0,8528422628976842;40,50121447256799;15,706973925690342;403,1630950717329;16,671379205012773;3,1045043428555936;0,8910287980646218;-35,60122539399252;1,814890684699699;15,011333318931445;11,097691813671865;250,06782932886307;15,902028939061584;-1,1344042608333658;0,6453148558692247;-4,168931397746448;0,45389707612195584;0,6838200331698647;0,6490642369817003;28,18175078878874;4,980104009496792;3,1040899591435314;0,3322597261383897;0,9526264647840736;0,34222444476980796;-0,36309932401015976;0,20525342755729933;24,40658053376749;2,4482470911848817;-2,089331035019005;0,921588476979748;-7,043090171254782;0,5194186105538277;0,6051824050718794;0,058256744846279546;52,58833132255622;7,169842954541806;0,5003145351557847;0,3319624602455513;-1,5371758410941454;0,5208358839397588;0,658347321047869;0,6727249727867172;5,66020863494842;2,090384432063786;-1,4308241524534502;1,0809602864381638;-14,942889949881248;3,09624841459618;2,6949999934460585;1,21870995015349;95,32696651542244;22,84818062165659;1,8414541674873592;0,415865901179743;-0,9156014015218898;0,8740094008567431;1,3340290486080746;0,8767457641953366;9,142497206109034;2,0301271146466378;-2,602355667654557;1,3067662381465832;-14,055433131353102;2,4208921341455123;2,293153876817283;1,0312871578203557;98,89044298590194;18,647127586202334;-0,2591725874059138;0,9776700827881587;-15,84006096611734;3,8549870986088424;3,1124526257825167;1,4433530255936935;92,10242615286101;27,423099637447105;-0,532499239891137;1,8637716256875014;-61,711300999505944;0,812825982217397;28,62343726438433;18,079105779880955;461,6127269667656;30,067965799950876;11,61985253049048;1,2930746524985046;-0,7400526129326102;0,15936947478757965;-12,636702923632669;1,449974145610943;51,133245977707304;11,029465142818555;0,17083970360509887;1,8146446877376061;-70,3714610101983;0,8657402158677276;58,43277172469865;11,129851650314809;512,3240852453263;28,946362648779015;-1,03037567197632;1,8567700386174886;-57,22593614858213;2,117983668755851;10,358187887401451;3,256965939088998;410,97085835667224;34,781350000630574;81,29102772146746;0,44866395013152566;40,22784821555406;2,5294808226088707;16,355480844893552;9,654405425061244;55,917687194147746;3,2161627084076465;557,9984007005211;32,263844470747884
003;001;Valoxy;Isometric;Isometric;semaxone;VL;40%;5;Fixed_4.0;Applied;S1_D1+S1_D3+S1_D2+S1_D4;0,7429374350915713;1,8008784252411594;-6,089535028977511;1,673699649636547;0,06852385627396415;1,3602103327319424;33,50372842319532;6,174753332124009;4,265024563227731;1,3968767538983156;-1,1860875105747608;1,2938628298121377;0,7243148558888319;0,1413065249894041;22,38914108557544;7,714050309927452;0,9267451798275044;2,9834373810304156;-9,062163599427166;2,5638573418707544;-0,5929983090207973;1,9151828886719608;50,82782016153826;16,417590187716755;2,2007148129425906;1,4706329980167205;-4,311691894672456;1,8627139945452544;1,7446136613921124;0,4812646823314578;22,767851902547235;9,935624767899068;3,414806397178902;13,693293009104003;-48,33788509247473;15,902969136599221;20,758525189723116;12,973784487333395;341,17524285801676;106,31734070102733;19,453973789441058;4,7246747510931915;0,9555105868939398;4,254643425637536;-11,70495757422729;7,110214663203803;130,31505168460362;38,810661643815905;2,4572509745344915;17,933554139289917;-67,52116602604626;20,563525030629865;28,449839860123898;18,447639251448187;471,4042470128323;143,17509055787528;4,4992362951730795;9,404975206122803;-29,505952545838227;11,516482920934997;7,735557974289213;3,7781992784084695;210,98878765226837;71,68930533980965;-0,3814450136495598;15,254387895270412;-55,21465595034899;14,602589107147324;26,843195973096066;15,883337797806279;381,7273519005592;108,77447243285691;7,978614405395788;1,6011685364208783;-0,14839361022745795;1,6598898702847755;4,232755451284922;4,44650654748593;28,869721772504953;11,081614275363075;-5,973589041274051;14,370002651595115;-56,029759625311456;15,239841986042412;22,64723066101741;16,580620713299027;398,3767037183053;123,76317243330568;5,231648160114515;16,175503629257168;-54,56475518496127;13,979200814232339;28,989284537854523;16,94932899774501;366,29629757961607;97,67010099202713;2,0269996258723517;10,132891073379565;-38,37403830572232;11,62005666775365;13,929684332854483;2,2032305238528833;245,35322059760855;95,4508884864152;13,28005809772703;3,8953761772302933;2,8303754222206776;3,228347210954839;-2,5578079718215223;1,2015592895659861;104,17868299085032;33,527828374404756;-0,8033757963483262;13,275101579951908;-50,87152341927278;15,323146803541475;17,289146085229156;2,901268527261919;349,0118232780326;127,79578700349559;5,5774250014903135;6,707113625287207;-26,0763768624313;8,10663448427537;24,986367303738312;14,55277195631905;148,38188942711008;62,01693819589408;-2,5617260125039207;1,634471771832353;-5,709310885251986;0,879553036488096;0,8466237374368021;0,28552413390819886;44,96692517901239;10,224402047966464;6,305943489914021;0,8838045809337514;1,869762659865667;1,1729270118788524;-1,140483802998228;0,1626244531816925;48,659620868448464;8,741584084261374;-4,434197252675768;2,7992697049019135;-11,98470287346364;1,7934967423447339;1,9755338011971748;0,4157218039733802;93,62458983480778;18,823471729190896;1,0715630953236963;0,28799476460377216;-0,940753290728602;0,3518653414564833;-0,37754643719320347;0,08196239869051375;7,3475949805373855;1,8430187869570596;0,29631068863465454;6,427611392667137;-28,130998690436854;6,735621326384875;5,47924477018698;1,768168458129515;185,68752324137444;39,474376131775095;4,839491151343263;2,0023196519467454;-5,8785185946645555;3,673313426885332;4,722420605996658;3,9672451600394285;38,46278258869964;19,675496070841323;-2,7141293781539395;5,917482368973708;-22,45360604796927;4,617622217036524;4,126758037439053;1,2073924463240087;162,40016103937748;40,480150870898;3,3637125013176727;7,258110800271041;-33,927586088595106;9,883901246800422;8,32288930484853;2,356104229477644;209,4311605784782;47,86884146684658;8,282099240480544;18,064781941711487;-62,57748904027578;17,684294649724357;60,698126024330506;19,88845925836101;458,93185141636957;93,75697769301593;8,430956806097802;2,5966854592833677;-14,737016574137579;10,36038879842808;11,388089999755456;12,072658536239013;84,66833713947948;50,10964127771952;6,226075917076402;16,574844748726225;-61,83657241342557;16,50448446973713;61,536580825095506;20,15903646930654;402,1367003729203;121,07372680612477;10,61040629266664;19,6370146531954;-72,75834508740188;19,88712677564249;43,63380138474495;18,544523083214557;516,4610997634034;110,58376179096337;79,72096790941569;0,9101492729706995;22,444549749931337;1,9014373351714196;19,206784574669054;1,7092788991416377;41,338876046535155;2,050580827496434;412,1210390208597;20,492101061480497
003;001;Valoxy;Isometric;Isometric;semaxone;VL;60%;5;Fixed_4.0;Applied;S1_D1+S1_D3+S1_D2+S1_D4;-3,1366203811306574;1,3256266583599752;-10,78378534171444;2,109202105849969;2,608126492936742;0,6260548146343525;72,19917585668877;17,640140019064052;5,120894315399584;1,5563962205673925;-3,7505779648696143;1,2628125511712418;1,0502587744792173;0,18237199238497784;27,181505085466956;6,4497616808685;-2,097964935901224;2,9145735727738917;-12,074856532543665;3,2551895218986657;-1,8005795379134777;0,5074090046831722;76,49481834014608;27,42363174100647;0,9390403377479206;0,45111508245761534;-11,617866277423088;0,9010026370335614;2,427557659254732;0,5942756931182898;71,0109545771817;6,409010094614262;-9,903452289711613;1,50006394846651;-39,60153164525913;2,88439339894466;15,740570119565405;13,459269635473763;170,55536128187123;24,64673660096105;17,849349842489616;1,826584562378978;6,254445921669328;1,9207366667611492;0,894065267846312;2,356064056839341;94,31067364214809;18,789391106120533;-17,041813196963698;1,7695287285619081;-57,45088148774876;4,427031861544618;3,9043706080796596;9,98662134176576;264,86603492401935;42,7435565557281;-1,5106180833316427;0,6803375076665238;-21,75218180276952;1,9270863456685736;18,124977401737922;9,752531630098892;76,24468763972314;9,695053346893129;8,391919840565796;5,179036909845499;-52,70014255465564;3,124021245659955;-13,655370429198172;5,686482328110792;133,1965076805418;10,446649783268686;13,057221033236264;0,9485277920004347;3,197261020525168;2,042805558193287;9,99825383497456;6,459741269849061;98,55161897962233;6,581678596446625;-2,9309337233113943;4,215869492139477;-57,49715906458414;2,4716631922888737;-13,294986542734403;5,485949974703778;190,02287129761118;34,101913793516445;19,743369782760546;6,289895769455039;-48,49509117079839;4,692510547000727;-15,633042721581637;6,990298998662924;130,75725114092856;36,73994863496607;-8,614937425920228;1,8349932208945974;-37,13496808917172;3,1100314133776084;0,4719736155772166;7,519210682897952;140,07700747593566;29,676281732345736;13,44451999438372;1,073166362804312;7,854534345185317;0,6114454119288867;0,4399909859509415;1,138490737219429;97,28892835578968;6,66521853988885;-17,41671522490158;2,652704188361871;-50,37828267943991;3,5945092550782802;1,4575304493607144;7,921561564514981;237,36593583172535;33,118245932930314;0,7326502562515408;1,4457337932992553;-23,918205448338245;2,9793735137689437;10,402369615257639;18,60334713768176;46,166544353146435;24,132512571878554;-3,3474288515561605;1,7442102776422792;-5,605579028667915;1,9019105346510432;0,34869443798079347;0,4342763618801864;43,92026181045598;17,805571846053066;9,246964522896112;0,7072732941699182;4,361807413199717;0,8073191478404214;-1,3122935337418746;0,09474768643633166;74,11517441208113;5,514100055407475;-8,094891821281914;2,600900140285277;-14,626658837983053;2,700039424981369;1,0769690278630029;1,0944956775613477;118,03543622253713;23,274027531724094;4,506872482674493;1,3599793639010584;0,29051146008323825;1,310884847024636;-1,1393282884985978;0,3834885300462806;31,062348921536774;11,377974636755047;-3,4741901729396587;2,243927725317769;-52,25389236482617;4,29516683875035;22,056546823191574;13,434520198473072;372,4945022886082;43,82694019638891;18,691892069894813;2,7562907955158864;-23,143553421423977;1,0385698847815932;9,62516456421151;3,543277626028805;162,85645957565595;13,77592473552903;-8,3896406515967;3,731465036923906;-65,50695059364787;9,493752653141003;41,02971395758199;16,420445436261552;260,21667977989455;41,19657302055725;1,5312065192483613;1,1125729619065083;-72,97033421921725;3,7426025043216375;13,475339736284202;3,640976361243859;489,31417631752566;46,52301839854203;1,259532104790169;1,215712032239604;-68,54200195700834;1,251008692115288;67,24549987285802;2,9697826636339304;479,4007554254912;28,93235315318291;7,774803745097796;1,5893511143603087;-36,6054203012121;2,596852830287684;7,880696131352737;2,6940083160232584;239,3891059351845;28,773833988776342;-1,0242172534380471;1,6087037790469993;-56,349773951828084;2,188669997840408;66,062265429698;4,695523609299247;258,5707263161673;13,340757499788236;4,072323204362189;0,7148324645494724;-103,88690169617857;3,617036276340125;15,437172873973187;0,9860348992331222;705,732704800461;54,375770474159516;75,99765656078924;1,4310194063115607;32,76308663705305;2,016536901247326;78,97432977534866;12,459071050361304;49,65012256300656;1,0018489631673633;495,7832594325687;10,055591009742756
003;002;Valoxy;Isometric;Isometric;semaxone;VM;20%;5;Fixed_4.0;Applied;S1_D1+S1_D3+S1_D2+S1_D4;0,3393449943753645;1,8307020526055913;-10,628258350686936;2,0655387687066042;2,1855347667087193;0,6904473688593302;68,37559226134412;14,762217469105359;2,8363499300999244;0,7229257273712988;0,47308631882420027;0,6466917938390072;-0,7252091140597329;0,2203297192796982;20,67538312875855;7,062718786423757;-0,2461861200250371;2,3851830557499474;-13,3054861228035;2,8365054362061133;2,602563168806492;0,9136991678066256;88,50820488106224;21,465429324785667;0,9567128041702351;1,4311414773712947;-7,9623360225230995;1,3758858677695722;1,7881618046583974;0,4931805201449361;48,7416000155026;9,117144100272895;-0,3155480243999154;1,2493619206322093;-6,609696180779844;2,2200005009624797;2,64294913295189;2,434637653044488;41,660705088047976;14,104308759223395;2,0978323708283155;0,6480759400783002;0,5866190078709631;0,39309255256390535;-0,466217858213929;0,6246260136544034;13,925710016380041;4,586141214907747;-1,0744003280312626;1,29664011997694;-8,584544984167376;2,908508834710022;2,5895480461706044;3,4634810818706354;55,09055506721952;18,432915094650962;0,5706233199485962;1,1080734776630372;-4,635008380535288;1,5806310904217655;2,0276941083953206;1,9411314976317093;29,31519295967356;9,566526008075455;-1,2263279199461752;1,0211232619279698;-5,195823780468929;1,3312125909295234;-0,5535969429766878;0,13871935564268376;24,53436018726494;10,258964606206074;2,3052683268273775;0,23912657150957642;0,5574591853944059;0,16045569301205453;-0,15207588900948996;0,4881170922328373;14,089512347904725;1,4512729670339168;-2,0240814437111063;1,0897622052725238;-6,903192769212313;1,284717589493751;-0,6901682321818744;0,1135224765299739;38,57798074127782;10,865479899709463;-0,2058541639131933;1,0715295601343433;-3,552595121524525;1,4261582762092675;-1,1033975883730587;1,213269035408609;13,029837680975229;7,166309708201263;-0,9891800103993781;1,395456904102699;-3,2078297065057497;1,2656604473904598;-0,316257128932448;1,3315262559610335;18,932235542775437;12,389032252786405;2,394308001692644;0,1474925892154908;-1,1998138186985658;0,2027668122301444;0,5601448905299323;0,06445500474506545;10,702045325141134;0,8953791133642293;-0,13469403403929778;1,1660524782415123;-5,476643427139225;1,2377253175010563;-0,789401893946615;0,17171918261676478;21,461758594170753;9,37419459600373;0,7005911671035437;1,3493465642108537;-2,8778115341785253;1,2908281351140278;0,5251808425595103;0,09779010855194968;20,924257088067243;12,08251224217682;-0,2748195854606189;1,5197149017913338;-3,0385704539219143;1,4556111066136408;0,45074794021961495;0,20790101978177916;22,806938568419078;14,11369968776316;0,3166510813409954;0,20578003453470406;-0,7972531794312245;0,07415028297668437;0,12403538249616637;0,021416725002644684;5,072521218420951;0,7861340761867532;-0,513655512207815;1,433046833757713;-2,4906867239557635;1,3529509438459562;0,4937928004763206;0,17433175683768712;18,48791803660619;13,256215432051803;-0,007688482999456636;1,6489839508109936;-3,763634774908455;1,5134939959314408;0,4217636066688765;0,07845657838288828;27,32397801471622;14,890418975750912;1,2918854897178964;0,8037814882387312;-3,309611794193492;1,0372636550544467;-2,016670702175337;1,379881810467241;12,01706397615242;2,5921761561457037;1,495845410178295;0,5528703156142825;0,14683855125207212;0,2459631213670289;1,0916768254561764;0,46507331640562655;5,527237982588788;2,348432699164447;0,9452027296021711;0,9933733919592029;-4,6700849332205525;1,5278246393357613;-2,42501157704056;1,6846464452369854;15,424897537430201;3,174046898176708;1,6551593677665566;0,647394257106305;-2,068104190337606;0,6909523110493263;-1,726868457301586;1,231421599388472;10,1898068480278;3,5691663880277704;0,522604290932901;4,156171649217961;-25,910800778435476;7,270434543279019;5,373764116409861;2,0015677924462203;170,41652146442883;54,77617364355325;12,041068239633756;2,3642518259332075;-0,613511192612242;1,3499501784348447;-2,6576469237788487;0,704101647710558;79,52551755592141;17,03729269956058;0,8831294515504489;5,430354010738214;-37,76551461609441;9,536054791598776;7,144162179398085;2,863813086480937;249,6849369326877;71,51860897191891;0,22087531339683447;2,9662132330418087;-14,243045237800334;5,024117840913737;2,5150112760423537;1,100971742005066;91,56200800762241;38,24620069392995;75,48812178699414;0,7596015584671139;72,72779586315238;0,8397256800730954;-1,7594835358946308;6,548427767804688;74,08655974123569;0,7427357446432132;740,7957096743542;7,426072921235413
003;002;Valoxy;Isometric;Isometric;semaxone;VM;40%;5;Fixed_4.0;Applied;S1_D1+S1_D3+S1_D2+S1_D4;-0,7026580695416521;1,9070971555981995;-40,236136339330685;3,1881202316363892;10,829080759845999;0,8907443823649702;260,4344109850238;35,61755101451654;6,825280245558237;0,8855219606865103;1,0602581249345693;0,66496025251186;-0,9318937992122486;0,5437548544190296;46,7523806209741;9,318338792123853;-1,7646699844822564;2,5359806099641187;-46,02246961706124;1,8671796694695293;12,08249655355491;0,8338123265636774;306,75095653838105;38,63475431379157;0,36039255683870514;1,3133511885774596;-34,59152946653444;4,360443339026149;8,923920594311216;1,9370131504311319;214,46540525066362;34,78917898233531;-1,2519112096038967;1,0064570454474389;-23,57423168514213;2,5947668095456593;5,964785177332002;0,70851362447711;151,0797305099328;23,048764444481925;10,494692525627965;1,3104173911614518;1,8983942098655227;0,2926616646608815;-2,223097535244827;0,4095770842281912;68,91426546435618;9,55365455116311;-3,1666102179002786;1,2477628751740901;-34,06453325680955;3,881344606097607;8,245906742891318;1,0252901191898114;219,91636684847555;32,26936302697427;0,6756812138935109;0,7620987407288783;-13,09070663400733;1,3562707186007972;3,770370844747224;0,4607910760355935;84,35190063027933;11,743454678896724;-4,727602916908884;1,1000186884718928;-12,913388435959423;1,1564257263782987;0,08479256153413454;1,5674741217667214;89,11718454113237;11,815037586104273;5,691587025037047;0,043962308819428336;1,6279458921722127;0,43859489411394176;-0,050561809016967274;0,7947664746873223;37,20246714217167;1,9173040201108724;-6,355548809081098;1,0102820858414858;-18,548545032180492;1,1228693787387505;0,07749509645176529;2,378628872975168;126,31965168330403;11,208775435590098;-3,059491195516599;1,34193894651996;-7,728490804038605;1,256375061789248;-0,2754258051080651;0,7554796741444822;51,91471739896069;12,68486062074359;-4,4485662012548275;1,278876414272545;-10,952314777449605;0,8372404872839071;0,7492898171734949;1,3054341913660463;75,07834712089812;7,910388936599962;8,936027265378051;1,371522551023011;2,073624400186245;0,4958957890347629;-1,3949301852116407;1,0614131663032762;56,38103591529214;7,683017291399841;-6,563442023801331;1,7300983950824504;-19,805697855836403;1,7088371314988688;2,6388369096082527;2,1049165550228834;131,45938303619027;9,951525171746784;-0,3156355806488881;1,133719240690639;-3,8583067525363175;1,094814120247005;-0,31801203526087146;0,7843012650119427;20,552647377010985;9,898770487639705;-1,3097806776531975;0,8765621265651243;-9,075514059483787;0,8997052413838456;2,1783781882034527;0,20632736416267372;59,700975518104954;8,95137127649879;2,1408972754019793;1,0021563878664692;-1,2518098652788212;0,2668777498690369;0,5023969502161558;0,1463021794629464;11,013286801076708;1,930518323428827;-2,2134838272363706;1,1671905672886242;-9,642053320352055;1,8086195958048157;2,0725849045545046;0,447785046801104;60,89342942764951;11,15163442698881;-0,3447415735186278;0,6822742465990504;-8,955554207747019;0,2970221292076896;2,027100275764888;1,301151026054867;58,60524076182064;9,151460472724175;1,5712033952592748;0,7958095474337465;-5,527677202478133;0,7740893102930388;-1,0442072168766634;0,17996208762732513;18,754330910003272;2,4635755797761214;3,753773625021991;0,6798219278704569;1,0924124340668162;0,4064712245023817;0,34599227809525257;0,08558604243583143;23,02476933966053;4,374677202535707;0,3899632596339645;1,0777256121799135;-9,167644194811029;1,4152066382912019;-1,3914726085630045;0,27021186620044607;32,87073666986436;8,870060379278529;2,9006079123571715;0,5612983153169882;-1,9690529976938975;0,40786069825684923;-2,04956747906897;1,4305853914564597;19,400722047750715;3,5800223253511305;-1,232010541043589;2,1714529614745377;-119,25070841074243;5,425967073039112;32,208599167585355;1,8990996606339527;771,8380268770708;87,18608126275804;39,143118031818545;1,3886236073083533;2,532806046969813;1,2521956124675915;-9,964686555351628;1,1728763342369586;257,63263394051694;30,293668401412123;-3,869006838209954;2,72249677157482;-158,2260456417925;6,5463002413473275;42,0663825408359;3,4072201440383387;1028,8485548838028;118,30893419653701;1,4649683239747087;2,0922920492717534;-80,39634959810208;4,299190614404367;22,521430865444994;1,0427828161290849;518,3660790831077;55,44933984508657;71,94402322413147;1,2120909488761196;60,08866406708379;2,715916224319496;3,3180844873096857;0,5228858254166356;65,34737430257104;2,2522996352140443;653,1444939809564;22,59574583888361
003;002;Valoxy;Isometric;Isometric;semaxone;VM;60%;5;Fixed_4.0;Applied;S1_D1+S1_D3+S1_D2+S1_D4;-6,12126830853288;5,437733570343839;-47,619185505212826;4,303192522671901;10,372676450566379;0,7333601284221443;330,45014438564897;52,849676215511565;4,48011465242024;1,0698601372395629;-0,8967627521652236;1,664966193547589;-0,8642184087244834;0,19997590587862013;25,65396232925489;9,872959556529802;-8,580077165522198;5,894139405249433;-48,06110703429149;1,7001446400593092;10,561114488440387;0,4494126703220091;351,2240671350293;42,548980648269286;-3,662459451543563;5,04364345125379;-47,675289092792035;7,22946224824673;11,037860690599624;1,2732760342578016;310,306589091222;62,72496967566789;-5,692083256417078;4,891483124952972;-30,120494228737282;4,306508737888897;6,076428995062505;0,4525506496664361;212,50901117011094;45,365230091735306;15,157279527709473;1,769362961808563;3,427361461470055;1,3934321088597181;-2,915149870127226;0,36786270500771967;108,39037954347175;20,899456842548492;-9,11978573936303;6,274503230356601;-45,239624065246595;6,028026554012275;9,121325371935498;0,6580381865668182;320,0778981638972;67,58433516743948;-2,2643807734711254;3,5161969240938924;-16,18116266572157;2,9442263717020922;3,994405745109437;0,6227791899433003;105,82972947067883;22,134055555801748;-9,572437161732996;1,3498141783621316;-23,70485211163973;2,8522172400247947;-2,349809972271366;0,33277367400639785;168,30912081755955;19,320888230503638;10,069749607445955;1,3502154681788632;3,672604891897182;1,1847148137400527;1,0486217722212148;0,06635203836277302;70,07909262301976;11,916171650237478;-13,245042053630177;2,4082286406856754;-33,73892430338518;4,161134483036512;-3,389152744387583;0,38557041584913787;238,38821344057934;30,618834477413607;-5,603225383171648;0,748570871698035;-13,714089182143027;1,695088480021324;-0,06522010903086346;1,6883755057459704;98,23002819453983;9,647316355952265;-9,662535866383497;1,363523111299104;-23,37063117436937;2,8365661572564256;3,484738076597469;0,6659466790733126;161,41618630319118;20,83900790718695;20,789383866945716;3,6417910249742516;2,8214365257665146;0,509464646468019;-4,645116236731876;1,2571205737763231;133,8724184712258;28,01946528775508;-12,5025977017403;1,463633708357971;-44,095743973866924;6,398303346949105;8,159368241707705;1,9050383692779982;295,288604774417;48,140075870575714;2,160545884089089;2,2093345392673314;-8,955539178046726;2,03241214911512;-1,4759203931279679;0,5116854764474518;39,5177034211854;4,75859502813035;-3,5014761855248735;1,190431584219753;-18,335090067168313;3,5341940074195577;4,252432789669693;0,8941207217558584;119,78810221982837;25,40588806217407;5,656744838058614;2,3306257913165767;-1,195775633255735;0,4391480319940183;0,984975385702587;0,3307011744553696;29,69090049147372;11,57112678894196;-6,396363495021958;2,44866164664991;-22,80279955301304;5,853044850408127;4,573278932679319;1,0976029788082171;144,9124737518234;39,47202969423817;-0,3069243569035306;1,1033434142872263;-14,526829738233655;1,5623102401123607;2,918887287612957;1,2678362125511105;95,61791348509789;13,579157359905238;3,361547165573815;0,5600819330942626;-7,527537071027318;1,0808027723002975;-1,6571784785119206;0,25633414990471937;30,454993352126177;3,6070050170380537;6,182322191149205;1,2366671249465029;1,1637562669762835;0,2506240541754746;0,7718581863624989;0,19184373236171892;41,363550001637485;9,035462182604933;2,1343588460214495;0,7755222562039493;-13,538663924521137;2,070741131301396;-2,1743564300934537;0,2665304083646025;57,106624302405955;12,591245249763674;5,676579805323835;1,2248536152186693;-1,5308146855881195;1,0195009424383723;-3,6222623476256857;2,1654217323827814;35,50875775929292;8,261162764819685;-8,605465174054752;8,742186705832001;-141,32298029041414;5,831468203218513;35,35694460666845;3,7029933296285376;987,227935957935;110,10941622527926;44,22035569296166;3,5679959871628215;9,687897331177396;6,42522026898072;-9,854425106946975;0,7058899578653761;291,55963957800634;38,23359261300322;-18,397987356075607;14,863767949638499;-181,79279981105537;7,512492533369811;42,96810711257232;2,0478165838612767;1277,8453876312392;149,54134811614236;1,819346575156003;3,3977163108050763;-102,33909305889368;4,728654122082725;22,060365212179413;8,76931906362013;698,3052734762832;71,58890924675636;68,0241517019855;3,0376157756016435;48,72913534188387;4,5930148239485895;5,1530408213973;0,841405621105178;56,670115968225424;4,527219344432065;566,1296467529498;45,39831906100917
004;001;Valoxy;Isometric;Isometric;semaxone;VM;20%;5;Fixed_4.0;Applied;S1_D1+S1_D3+S1_D2+S1_D4;0,7680523955808315;0,51037548721716;-1,9943899822343603;0,08068999748938326;-0,38016575584290074;0,058140403051580476;7,892215326126182;1,4712899559115609;1,0969182729176628;0,21965317972560258;-0,7501776616119369;0,2776734818766889;0,2023733686817863;0,031168691309559442;5,530335766069541;0,6861569920711241;1,4821520800396082;0,7776231255336808;-3,080761055584985;0,289411475961596;-0,5423834150516097;0,10544181110191836;13,197633215663714;2,050135242870639;0,28913008519448546;0,1628901900808547;-0,9122377605415704;0,14503038936805793;-0,3687885043042137;0,2545053110557479;3,9899665517316114;0,687865362387101;-0,5247625475190778;0,24326849843088308;-3,341636540559441;0,27504185462645947;-0,4798947979047424;0,09253493263324707;14,79324497624051;2,406873388284753;1,1427088207420035;0,5786236268685075;-0,28756197438710496;0,35440420032618986;0,15073990857596317;0,048387774332167746;6,549613843053041;2,804824705729348;-0,502382956075804;0,4165364644714892;-4,2339638513760915;0,7451466470140381;-0,5951949678931798;0,07799766588787867;19,991635122650262;6,286257388578123;-0,2104132139350552;0,16541581226859692;-2,4738542352127135;0,5543187924101998;-0,4729776278580527;0,9184794689563518;9,70662500064176;1,9764568681896368;0,35094907914274226;0,7992830079723133;-1,9164720732969212;0,5840893742353307;-0,6820079310111675;0,33918029667712757;9,557234135041469;3,6889732788964498;0,9662965765975692;0,26577820692366844;-1,2522496457036643;0,23755370470021184;0,25646983876810514;0,024130865790625105;8,225448252120293;0,9250678886124147;1,339538637747507;0,8377799440519845;-2,7884257373081467;0,8529603609965247;-0,6803329248496569;0,18769328226379162;13,639349221452557;2,587457990056374;-0,0817594708941338;0,41142371694621804;-1,8621042415279576;0,7018928179403144;-0,05504298542495935;0,34445155391241866;10,73445462915521;4,728739759959442;-1,432873888117769;0,41523197464881795;-4,549392328596123;0,47060427031946045;0,7695650238280329;0,2597845098906956;31,57709587986968;4,629760291207013;1,6464102125096687;0,40931973131344024;-1,6222527921594334;0,29782405251073163;0,3457108576645441;0,01544942889446973;11,316239899862413;1,2724803698255667;-1,6774391604767185;0,8711104901633079;-4,080575092808213;0,9671725299404991;-0,3639525626160586;0,15370745598827876;28,954406223812253;7,891496586650217;0,16130929410714992;0,17150575319203668;-5,472362323043671;0,5175475582041649;1,0881554193986416;0,45663467280738346;34,41093137212647;2,379218789085618;-0,7993894150921845;0,3322126273073858;-4,247020944305473;1,4502749840146887;-0,08283139765953093;0,797887768420897;23,703444937973536;5,651121463963477;1,020151688369612;0,34060143250510627;0,2531166354850962;0,08966607567458568;0,06969281710356143;0,19356081322878285;5,855555030137763;1,391335395785007;-1,246621354983764;0,3112216855760467;-5,191491339898078;1,7834375002555212;-0,0743142124535278;0,842868350092901;29,5589999681113;6,947114324590976;-0,350293319252971;0,3766856663131759;-3,3282091784378105;1,1190262015866967;-0,029949596551892065;0,6570339052616094;17,862070103126904;4,392567008362269;4,264026105610045;0,5311197819488057;-1,0798739993568656;0,5726089433444773;-1,9089267123207982;1,6348788389957611;28,817200553722493;2,7169669452919862;1,6299452940023744;0,24233567011325569;0,024223426228689594;0,1962066855447718;-1,4645334397831538;0,11941336546421726;10,618222410557033;2,001176553548817;2,857423436673097;0,5064220533265954;-1,1387724564190964;0,6680620332480238;-1,3219948762006284;1,2200190677708078;19,188445376218837;2,6723926371262348;5,738420106762933;0,5417003707780492;-1,0439722161860083;0,5619205716563642;-3,1919799862728837;2,5132818760471385;38,64670167153143;3,5872006310280047;3,894978765031932;0,46490436965546666;-0,664385080623471;0,7083209792660076;-1,3159205236203815;0,8144755838885338;23,70484337059887;2,7334814161008523;0,4322827650177419;0,12115640814167299;-1,2526692931016488;0,2121018226380147;0,5812888764820856;0,4516123667896378;7,724432059260133;1,1061017907283415;4,94016358850657;0,349609552673608;-0,9539225425566824;0,8279083594379159;-1,7222632845060524;1,4114071246779099;31,083063689770807;2,5888509772882022;3,0325696364614765;0,41979321078131043;-0,404585440440255;0,5838778662546671;-0,8724522455911956;0,46060336417897896;16,50136586766741;3,176321871761451;73,84099024729906;0,2323308563922674;71,54290316090892;0,22885442353581892;-0,3257589397189896;0,044661800274997304;72,80881325467726;0,24171218420565163;728,0896075028891;2,4235252276290136
004;001;Valoxy;Isometric;Isometric;semaxone;VM;40%;5;Fixed_4.0;Applied;S1_D1+S1_D3+S1_D2+S1_D4;0,6206914851903589;0,9646994538193964;-2,3256977802474696;1,5017137425222302;-0,45955935109458873;0,10495551691950367;14,190799660814486;4,581326028639054;1,6853826367041111;0,6500606800371583;-1,2931904075994018;0,3015018959712431;0,3310964644490162;0,05354157199820307;10,440836189149739;1,053974729403355;1,8403431199685734;1,1483433212639786;-3,92140825195468;2,1224369898049433;-0,7121474335916338;0,1835665358219531;23,05394655076566;4,47676077687317;0,06293862825892375;0,7357026943396251;-0,9933514637827907;0,7975052404639964;-0,22102677217101013;0,327753957957813;8,164984999196836;4,275654098967055;0,06315255414047209;0,9283503490028394;-3,638067711162101;1,0503795666407838;-0,7514631230780079;0,1355029931256403;19,928620179437594;5,9432082560284565;2,111523798585601;0,8797073370447198;-0,8902423726310911;0,35556019515546017;0,3540581656407808;0,04944708041906356;11,846846182638268;2,750435833061798;0,7550753821760727;1,1253131367134368;-5,547650794684059;1,9589249271562408;-1,0615376259410614;0,03563191470543375;29,971414317038363;7,92554923890435;-0,21540680753181904;0,5204111900558556;-2,1356749247923306;0,5013630145011407;0,08220349350131544;0,4429490348618185;11,119105551665962;3,714826686416459;2,242994687960636;0,7532214496702575;-2,6928779579861497;0,8829762492140077;-1,3288078138053205;0,5194971451296168;19,018289577546753;2,142597645947286;1,6494520371427668;0,746150221318194;-2,123890383861574;0,574867329796997;0,40905300010858586;0,01771254674629201;14,731578429253393;2,0924745573302004;4,020635320497232;1,1330805275124984;-3,9236652594993737;1,59777767578092;-1,4743246120128797;0,31114834024633153;33,520144997204866;2,286483510946662;1,106220226232341;0,6204035467040159;-1,535542110964246;0,40080129558096145;-2,132341961731132;1,0269495441536793;7,427900031644862;1,329162171092803;-2,633283850248249;0,6203113351132765;-5,298448954646071;0,7172615103773979;0,5690061484171762;0,13193499378424978;39,885730537672586;6,652921896249166;3,1678214175467487;1,3855241961940086;-3,501372694958312;0,6833862539621155;0,795945006150849;0,14008625424466092;27,26013959416835;2,0748797533489296;-0,8251470118001759;1,1261888872554717;-6,192356690670322;1,8907453380258676;-0,6913077507851177;0,10675006891600441;37,08543091623939;15,20913140325124;0,43868315032419114;1,1058004488563717;-7,891749341710964;0,6997287874972614;1,1040231484111604;0,4554573700370927;46,55893585796665;8,25253098486489;-0,14100430969990563;0,5323933980453406;-2,675887063691717;0,5593950351884639;-0,3436512633701347;0,7454302584285973;14,453794483316562;4,263426747121881;0,9184181123520074;0,2746133986512272;0,18773404942798083;0,20162350076004115;0,02353202135916413;0,15201522444091636;5,288266224293698;2,507368830227922;-0,5317660998990043;0,6531799126244698;-3,422377811720699;0,8760462970757402;-0,05843676461172691;0,8613550697644122;19,699339741451052;4,344044396549386;0,2822151254420506;0,6064613598017767;-1,95607090907248;0,42916836746597153;-0,6366197664627206;1,0675824224897412;10,190541992475087;4,80788150634833;8,113868890627003;0,7623535896142812;-1,7045933881515503;0,7931500634373144;-6,808135331388885;3,484860909592249;48,51386631769267;5,724257251356221;3,260913179577547;0,6132050249554417;0,23701372256506031;0,298141977376027;-2,7950493242758436;0,5382462895785329;20,23318874719468;5,428733364101142;5,069923892914678;1,0732711384910143;-2,0725717707760163;0,6350279852528314;-1,5578636843485598;0,2809580534139714;33,23989189088699;6,189646884756325;11,275955732762393;0,9717318276357818;-1,4638856627340993;0,9698384840673557;-8,751445321998;4,332970269879382;64,90438500768653;7,940038579906437;6,272230346964945;0,7338645619357821;-1,0878866257514779;0,8744530891149885;-3,362627433851615;1,6684197417526274;35,561012113307505;2,8009373702080422;0,5540236088157613;0,38444977466334856;-1,527318870093582;0,28009372118297465;0,3116259404534717;0,05672299402680347;9,424497215580798;1,5488505701138584;7,686578050479494;0,963612662753536;-1,5145515902827686;1,253523936532167;-3,2671348144826524;2,086512339573687;44,672349350900696;3,761045799202445;5,040327078164198;0,653376992635781;-0,6918542710624834;0,6000761342636888;-2,705352345358109;1,338191989899525;27,03515134252188;3,0554470948592733;72,53619120223414;0,7704095765534325;67,60337927878962;0,756142585045642;-0,5638406272837323;0,111933376779048;70,04565546725284;0,47133276365554166;700,4450987781055;4,6981516566522075
004;001;Valoxy;Isometric;Isometric;semaxone;VM;60%;5;Fixed_4.0;Applied;S1_D1+S1_D3+S1_D2+S1_D4;2,897661347264538;0,8926537303399638;-8,47796435881759;2,976407868762506;-1,4927151224039352;0,2967848495474587;38,72262352503678;9,897985204118463;4,684610030375143;0,9505265377995616;-1,5151301738983574;0,5021977884716785;0,7791744348350992;0,05952909805891598;21,677815877935366;2,140739471034086;4,40954646152869;1,315484958975595;-13,07272010517526;3,8424853719845604;-2,2751703856596412;0,31657568644103073;60,21219056462523;11,948192671538967;1,4167453801269492;0,6104240230558978;-3,925523432501259;2,1353383513638784;-0,7921137569907776;0,27778229079143885;17,85459801380503;7,407157812111936;-5,445239956034874;2,364299540467736;-14,356773193234712;3,7937430734494177;-0,24049664826486664;1,3751520475185597;99,24196705349623;32,1143832871801;4,438079378009748;0,7858521881599749;-1,7203797617618026;0,6625627508048765;0,9238946060953765;0,09813073181465563;19,293701232316245;2,8152588694317453;-4,338797244073329;1,8329371812797568;-16,11049292562966;4,779498169475163;-1,5221507464662138;0,3102956081994416;108,94302689923526;32,38213597258323;-4,670638768768074;4,068090845569497;-13,443371142413502;3,3232681217254036;3,9151961409634333;5,537985361137889;89,93457849771423;33,03209796401737;4,7080674909139955;0,5199321562607285;-4,5937288847941495;1,588180731317102;-1,4207050298229615;0,2690381307299675;34,96688887212376;6,434863775227717;3,960625105773649;0,9146386642503107;-2,174575819085318;0,5817533061523571;0,7336699476191664;0,09449021346989235;20,72571796568635;2,164179273310133;6,683115338719588;0,6929431225630902;-8,32800591592645;2,3051007213983685;-2,106574074459084;0,25448610752352124;54,142266085676795;6,236106251871394;3,334002841357075;0,6175980232454357;-1,0247130394250614;0,9298244083822182;-0,7369604459970904;0,8035429181395076;20,2527927348248;5,6157324154267;-4,180826520107074;1,8079565426879203;-11,367629907888697;1,2447283469536103;1,1809458674163946;1,0813927741988296;77,15541330105347;10,701554633565268;5,240341336107083;0,7056995708446607;-7,377875464232;0,41976271704486423;1,8653412728719378;0,06746410112496878;51,13202053273111;2,1234027712311554;-0,6710497789539656;0,9738765520719077;-11,031905000961881;2,5435877950159167;-1,4178690029438235;0,19332282465993425;58,20239692358075;15,554024096787371;-0,18207815848528552;1,2888176038128312;-16,179043279284336;0,9238720624548806;9,598148291258493;6,028088091788133;97,92042030359748;7,498590130482912;-1,370288228631597;0,9633186231192952;-4,257965624353308;0,7290872395510419;0,024023348237730013;0,5642170375675019;28,554462547027576;7,145222918416461;2,6469602996846158;1,0129695199086195;0,09164835097492488;0,4092987130017646;0,3531875117304174;0,1435804847596369;13,545707066181564;5,209550689267958;-1,841666578629702;0,9143211466256487;-6,595181681940014;1,7795858333790942;0,4246580340725089;1,9712446184358365;41,827549302276545;10,840889600184019;0,42301219327386896;0,38834790253764784;-2,864722163530947;0,6905890965894712;0,487872057592151;0,11664594700956107;16,0912633474016;5,427492055898842;12,711966527437053;0,8542850711994262;-3,237076742990266;1,4598167755277018;-4,6796675829323355;3,872462068697185;81,29454840098342;7,558907905255737;4,819723406440809;1,6634293037016412;1,7411951625302056;0,3765993645795464;0,1979343074387679;0,5477483906644709;31,966829627339344;8,417058628670302;10,35084764262518;0,8585781142473037;-6,8954788172173185;3,1432130618371876;-2,567800027762414;0,4888644430892716;73,0719227153354;9,599128323435528;15,997197306059075;0,8538038749392819;0,26762565681222117;0,6321107736403876;-10,769884102687172;3,8866179517572714;97,41217233605754;8,301541377701753;12,055409721895376;1,6584023321556463;-5,06538593583967;2,7825141398925557;-4,538693958897822;2,4287220487521775;83,42673407903041;15,508890035474916;6,116835113979232;3,8580882914507666;-0,8933507897926486;0,6668478287187923;0,7802995101836394;0,41826118796573697;24,493096690509958;12,936517185628643;12,553178878512545;1,8899447286565703;-11,000476968880772;6,55927591178549;-2,9493862329356917;0,771911566531573;99,83225161679856;24,775329177756557;12,827042332657271;2,1638661874413456;-0,14693071685408032;1,9411280676228535;-7,417952367797845;2,0942235344503843;77,69354526089927;17,293948398236864;72,46899921166637;0,5828559349183116;65,20931170457801;0,5569046444838175;-1,0145774627142194;0,16047230012104957;68,77568927508804;0,6929642972963096;687,6745302187117;6,958268508269616
004;002;Valoxy;Isometric;Isometric;semaxone;VL;20%;5;Fixed_4.0;Applied;S1_D1+S1_D3+S1_D2+S1_D4;-0,1719323810212393;1,7055100130918095;-2,3266627617772335;1,589040303195828;-0,1958049417402961;0,5886269915337231;18,557722604557377;11,007504494867005;1,2966493338139233;0,8275647728257189;-1,5866915291619146;0,7105662028693361;0,6018149252590579;0,23429616192082492;11,242004700381106;3,1575262285460632;1,3731217223371661;2,4315328988631277;-3,5095927924085735;2,4488833959121865;-1,0017007610003008;0,2729236661592451;24,002443168099077;12,16650043483805;-0,3548697715322954;0,8761299033839122;-2,750976330534381;0,9010942689677887;0,8228694628387846;0,9028176330602821;18,113449206559757;9,312689223646958;1,9955377216807135;1,5718877480101945;-1,3028180671702618;1,5046580679014656;-0,6717264777134019;0,38941398676972167;17,122565359975184;7,239637393206436;0,9547743387285774;0,4159530338249901;0,16991856375086103;0,32444314207690794;0,10655740241657148;0,026112010868741927;5,718858013992154;3,289086141610057;1,6275452486091577;1,5885694056247022;-2,1311621914595973;1,6612789657843754;-0,505385532877754;0,12218939700032692;17,338370692453633;7,404280839145339;2,4750706501212667;1,7259438430230662;-0,5150623203810417;1,4539605625635232;-1,4921816530587326;1,3581017959437864;18,57209368709477;9,44313646660177;-0,6264597675285387;2,1459214820574792;-5,840969156039082;2,1535256779367677;0,6959456027945958;0,658952617883388;39,023169584382366;17,526994199145307;0,8245929640603187;0,9707787066018116;-1,2394909727454948;0,9982513157660599;0,4887008529564782;0,4426969298426054;11,647473215211017;2,2196959510016576;-0,017515097867747586;3,11198702226751;-5,89493406383976;2,6401183250372124;0,7528172668332267;0,880463840656853;36,40733767155557;25,665471349497214;-0,2349659572747155;0,9546879975474886;-6,281859619398885;1,2883852298579097;0,8709878444152516;0,349520179667314;42,02444580542791;9,343566335593431;-0,904864035496854;1,4238854701254906;-5,884877100757645;0,8473859822504315;1,6381637102434685;1,677991838623326;40,20236922014233;11,23505133355806;0,862725302790208;0,3598431295454773;-3,287142970212346;0,428590227868928;0,6612092227974568;0,4115575543763053;21,74312612512797;3,0815397242765594;-0,7878334168730354;1,669925968353096;-3,3236265924056925;1,353919172403061;0,11435229534331821;1,587969301012462;24,518380660515742;10,408369619558439;-0,35354900180722815;1,0283887442291968;-9,019197671166086;0,8690686199643618;1,0238570459580092;0,20071201893395754;58,402023506362205;9,036206476199915;2,3584219157118724;1,226920223373959;-0,25999730594315673;1,1586987915287166;-0,3195654424523546;0,4743245590053147;16,020387687539703;9,527016136650255;-0,1964336187247693;0,3986911185647996;-0,9814794930773146;0,43078721652565993;0,10397801325051206;0,16887861789688546;6,941992479191311;3,6357350169605147;3,280608170989923;1,2708947852098542;0,07859641466433995;1,3063412902291718;-0,637973136276705;0,3226944351940966;21,08489546743234;12,415088364512489;1,5722929766456002;1,2993540050630883;-0,6148774562936936;1,108580529346998;-0,5995483742947317;0,32078458323890624;13,907517717079433;5,296425939040405;1,4717455292516235;2,0002687633615173;-1,6522796918829372;1,5996703185080656;0,19539854316912791;0,6848987252182427;18,21281391600286;6,853360085336024;0,1923594037672407;0,21885133607306634;-0,9225261155554417;0,245054272734377;0,13701769633814304;0,035953595116905636;5,311888440518469;2,5167945758095636;2,0473605288969816;1,9713695839225711;-1,685801008277354;1,5939127097632693;-0,4663306116044591;0,9852076140517038;20,676027645263407;3,6123605730224524;1,0509216576264016;1,893925594340944;-2,0036163060145666;1,6082330083890832;0,3973092387259325;0,5601611091638495;16,096179341154194;10,963858677338756;3,63023604838864;2,0196414038928383;-1,6101020754094422;2,2757636658239138;-2,2681732128747454;1,9866425009606556;26,945428995861448;14,90203014153976;0,5720308645118445;0,6253574277395249;-1,630485989331941;0,6150451694772333;0,24746223745134435;0,045548035566171846;10,43043974183359;5,056147321291912;5,027159433229563;2,118805622034187;-2,032552398135712;2,57567893773375;-0,8919483257447605;0,16605685769938305;35,87159606483551;16,46088735140005;2,5669910386429136;2,158610568244287;-1,302982530599469;2,114881957777512;-2,267515945568359;1,740511682303473;19,449854649730103;13,082812257093122;85,33773669834757;0,5454356162455337;83,14655151959614;0,38424717578776835;-0,2785865781372984;0,059614118064484745;84,51676734961684;0,5300489432459563;845,1968782507076;5,319507985659087
004;002;Valoxy;Isometric;Isometric;semaxone;VL;40%;5;Fixed_4.0;Applied;S1_D1+S1_D3+S1_D2+S1_D4;1,6962198660124925;1,997450096275609;-2,4404499669811335;1,2008601070193745;0,4962992690301207;1,0219932896231636;13,410497902975536;7,733434275159294;1,5638073022873802;0,5835573977423375;-3,676621897044984;0,6032390466317376;1,8272316208540864;2,0491005321915834;22,6176782465189;2,500877806735146;4,663276660236998;2,5173133890081987;-3,6753773083427235;1,2748133510415849;-1,4661925227106152;0,4184570237054543;27,75899424258599;12,052028547820575;0,9001191976621659;0,9061248915664741;-3,5984950790258865;1,6119770711577481;0,9773649367495038;0,2752370500433859;23,1828142430327;6,952216476716257;3,606408523359182;2,944979763109975;-2,1650101007478697;0,4295159049267003;-1,606589753429897;1,1719967530871926;20,166833340231396;12,13916657895359;2,201269504051683;0,3067412259802587;-1,0143921617053333;2,249360893376673;0,9594246431698144;1,282533637906463;14,390021116289166;5,265290323218374;4,295891348540792;5,234872971342615;-3,9173721321085937;0,6017804635640357;-1,8692170195999869;2,1618498075231356;27,674135459646436;19,162257248087272;3,2197105850875554;1,213398967100711;-0,43967227364155403;0,44478389009285024;-1,104199479248074;0,846967589249442;18,549474651694844;9,079626322432976;0,612285100796907;1,5762390288168624;-5,742625178783979;2,313459331013463;2,041715807004139;1,8107202632650277;35,00295438031031;10,975043044507037;1,7683811834590593;0,3316649846947405;-1,584307023472467;0,41658688532060584;0,5834230868008291;0,18368155545659043;11,623642050109407;1,7814181667698434;0,20743063123176603;2,6858144436800337;-5,360644394452025;2,1262162104219064;0,5609215342831424;0,8698615805652711;34,52168878642944;9,63171346993248;1,719820485411375;1,7587704101825714;-6,275001109203882;2,5353427798979897;2,2495983143858433;2,1539796077886444;38,090534401726;12,314437134093474;-0,06646200601817673;1,273792492638993;-10,158251318182618;2,0750084655027132;2,5362249255968976;0,8270806063055718;63,42558374350832;20,71134589881949;3,1995563630159207;1,1210968750312718;-6,301975305517441;2,071434289689911;1,7463556789499008;1,1546510488838748;41,729362345860245;9,843704672437628;1,0926983266332821;3,8708034147421087;-6,79593919640403;1,393356161619478;-0,2347866243235585;2,6831926457406383;43,241787392998404;13,013424165574962;2,030423733696278;2,5707215940269665;-15,008906051365665;3,332572269832385;2,8355017654805;1,263971425822115;95,91108798667024;17,61538829322851;4,577511345896099;0,8294637482408381;-0,8089675358995463;0,8747063119128368;-0,8638890630991041;0,24866363144009507;29,131001916699347;5,381538373250426;0,858925187862795;0,20768154255101653;-0,684577558464385;0,2712530799217488;0,1955395171309952;0,008706774956376057;4,631925106926733;0,5155108201029021;5,167716822781824;0,7527058141259784;-1,2905885793340692;0,9412531127151876;-0,9062837038828551;0,12392173084615069;30,940393068683687;4,810719543236857;4,283572516742533;0,8812963579149552;-0,4856003414944266;0,8215510995479688;-2,78667984800095;2,299687693945131;28,541724431187692;6,418078947371323;2,6351748196573395;1,346215639950673;-1,210117988328268;0,6604243332957153;-0,7847841458694006;0,3005516535671818;15,985479476889632;7,729852356979421;1,3581428818217094;0,1855520532023577;-0,9593809426160977;0,14443968576187666;0,319428060687082;0,023713008711153186;6,1757032127185285;0,4024827694463439;3,033931288773028;1,4807516411611155;-2,4803916289659766;0,6161413874315005;-1,4834471712539599;1,1226158537824495;20,715837001687163;6,490592192909216;2,4252207506212575;1,2533810614713379;-0,14303870902783497;0,8444005335610363;-0,525324593604034;0,6036484098158772;12,621671170004177;10,502847153948515;7,1737206527523485;7,6171127580177425;-1,5667027988455162;0,7601396087612066;-3,037778242090428;2,989625455495697;31,82945906216893;27,382301005810426;3,64565331309685;5,451227911417232;-0,6916048130752536;0,7304610229790081;-2,8105474354173388;6,057768914200234;15,094018870711912;16,23060084719147;4,6131198106855695;2,0772844975389204;-2,4326858814175525;1,1812209691728333;-2,36159125542174;1,9070176544251503;25,84964996958006;9,617455163636805;9,840883186037079;13,384114106655812;-0,852053205922771;0,7135068075220795;-3,664954633901543;6,7815898645100425;38,95037601878876;46,45337877847672;85,91475238346683;0,9124915876420011;81,66180217836683;0,6653272009919723;-0,6046956573395239;0,05624211555891605;84,02725552930283;0,685824319885028;840,2374557796757;6,860267875312596
004;002;Valoxy;Isometric;Isometric;semaxone;VL;60%;5;Fixed_4.0;Applied;S1_D1+S1_D3+S1_D2+S1_D4;1,148442980588419;1,308654661971949;-4,276107263200725;1,3386438987557991;0,0936236287112993;1,2871157109114917;17,713006788613225;5,673555764327016;2,915686419696382;0,6695753597529079;-5,206397342592571;0,6363917854148404;2,4249200003558498;1,4466082920866683;32,850265256127734;5,060619131467064;5,877495524403994;2,5243395160138493;-7,105240224683859;2,0494800541774034;-3,7137697711483453;2,115871238800591;42,16220601273202;12,188566584535023;0,48191497048597787;0,4466207764926384;-5,052244058889195;1,0368825318482;1,1387703120839519;0,32567893104529094;29,083926740614324;6,458174876990143;9,53672256416601;0,7093913429419759;-4,134993616618576;0,8118818912822099;-2,2207962436991746;0,1658912921017852;62,6774403140025;9,322120490029771;5,35471771004646;0,4924625865677999;-6,175525938036118;0,5650622600434007;1,79461597226499;0,15577213954231237;42,911891618151735;3,153304529499334;15,623855901622628;0,7782629286898652;-9,2978315208521;1,213255725229434;-3,8987685969399757;0,1842576108745976;105,15637634686614;8,913970426625122;4,840551642621167;1,3882615241889542;0,3055304951187865;0,5606118233364132;-2,0312347766818593;1,3220555826394214;29,004508818751116;8,312128716971069;-0,22881266056433097;0,9191709604424267;-13,571231454519761;3,4752230610842845;3,0286296487951505;1,071457954116263;78,61782837780859;21,039917686827255;3,0717210308729195;0,4873924809106947;0,5969187429448312;1,2843257535913664;0,2764151842827586;0,3609232658726563;21,054936063955413;3,9323373699908797;-2,0363569846814826;1,4073747086225636;-15,839868079370026;4,754189884269192;3,1484339652736004;1,2928435496165673;96,91822902304042;29,044270724037684;1,6368391813431316;0,5507289804705875;-11,70805214126916;2,2998561248362015;2,08009981904727;0,6578428715791511;67,41096166144989;11,903343031003251;-1,7059890312723531;0,7031217578164126;-8,624904662599471;0,9297251064424686;-0,6887957439614907;1,1589753044172086;44,2695075433018;6,9569255471526725;7,338901842601722;0,7076355820290176;-10,578875329087222;1,0416924614870826;2,7865121998458133;0,26042614752643906;72,80376472740366;5,27710637645878;7,837764180777931;2,4359888617955487;-15,369596209339676;1,3661400787274207;-3,7778729797654833;0,3568306950612851;77,52452773201227;13,11580234129908;1,1210973035980591;0,7878552688619378;-13,563488183729806;1,0961347436164406;1,6285673962277212;0,35459635353521973;74,46596059879714;7,12751294708154;5,415065057333211;1,2272460335672546;-1,8031183152710863;0,9542866093152509;-1,4631836969163505;0,5620068893843194;31,091914931189024;5,772781293423896;2,470592575449409;0,5020785575684181;0,7421271741679542;0,5588843847128138;0,2852780071102039;0,06230975592214396;16,175140791926083;3,905870921774792;4,324467736638988;1,3474341961865877;-3,2704983137944454;1,0315363370035484;-1,0664250373148811;0,17547161281085538;27,524304766003887;3,686153717362003;7,140659791101892;1,1618714195189994;-0,3613778126885049;0,9911548677730869;-2,8990902963681773;1,0040944878513958;41,480801253848824;8,609263252658527;0,40820628410777066;1,2718783875033686;-3,3446038049398874;1,5668926502847218;1,6008305295222869;1,9865332977810009;20,857676803936577;4,924126180872764;3,0527870176576686;0,22173211592023104;-0,11951941619569433;0,5084322618530006;0,46974578645562726;0,05343921213708098;15,642006605426616;0,9205995206699886;-0,9099749728866193;2,3808579293312717;-5,235664400044833;1,2303365942082678;0,7167365980321299;1,61593876990083;36,022125731642376;6,134094284939942;2,703014288145689;0,7169598322025947;-1,9718685228839252;1,9727878882946974;1,3586063252355491;1,2354988688621011;18,242936086394415;5,860313539197485;23,795467497234217;1,2634064585636848;-3,1071314906679355;1,3994722042548458;-13,583442396251456;7,925991286590129;143,94286492061704;17,83509469623197;21,79676745397947;1,5439833145812323;1,1036537538209106;0,33488653354389125;-19,916101281364792;1,2416710730569849;126,84672884906297;17,746936881851262;4,056672476032979;1,6963448075012406;-5,238143169726245;1,4399301322376197;-1,5365659635562903;0,3858163748038328;35,01444653566406;4,4915130509810846;45,56029033780024;1,6310821300089888;-1,5569463108888841;1,112862134463148;-36,738891664342205;10,491353874355427;258,94943672516223;30,947705480504133;84,84199252209763;0,9252348352663208;77,7614714036213;0,3556468971620664;-1,1508869906576205;0,18962983559310548;81,35394945962598;0,40752138713845704;813,3973015099217;4,0904924049590345
005;001;Valoxy;Isometric;Isometric;semaxone;VL;20%;5;Fixed_4.0;Applied;S1_D1+S1_D3+S1_D2+S1_D4;-9,338280058670199;1,4062620606961769;-23,770103312133745;2,756161825442105;1,3692180202645765;3,0925277308868537;170,7225086279158;18,92789362429141;21,302509245160827;2,9686676892836004;4,158656836021082;1,4617745179840036;2,2619469316456047;0,16488274680464177;128,56930079961847;21,975287198753595;-14,067404560433886;1,1106036478406365;-44,08380278813412;5,645792707234489;-3,9445094449354903;0,4354740841697539;299,2918094275343;35,50388969748063;0,1871142348384442;1,4206884032055154;-6,545125964563863;2,2096031925635478;1,2768820174090725;0,408898693994176;44,073166017238535;17,321727244437138;-7,739442482421042;2,400941288264811;-48,29556056057619;11,971680102241887;8,892431227581621;1,7565930320160126;275,1824903886506;73,93176384820514;27,57270325760831;2,6134985189115363;10,429254014984478;3,297560703152448;1,7509023139111803;3,1850948317156207;189,78210124290104;29,20022825726004;-19,659451750390815;4,572154672342395;-75,12336029541697;13,295678604995423;12,327741400188662;2,374202817507259;464,9645916315517;96,24645731897061;4,851420866710355;2,5695299566340397;-21,816619645255265;10,597486600784041;6,583741246409149;2,4372673189778076;105,44151164877783;47,69058262708271;21,222570496790617;9,502749152961231;-14,991989413457521;6,235863238168384;-40,08578673084825;17,331311613497938;76,72513660723857;28,29001256709476;2,420295025621086;1,7104591501853124;-12,013571867924076;1,8047724073440443;7,52463929654602;4,269035101829896;67,48283759283045;23,541704183314074;28,997783944759078;7,604595682061099;-16,342968698057195;5,666115372602128;-45,79114798988249;20,237491554858682;119,22538319096668;39,27640649753774;13,782295124975496;12,282507071434923;-16,256958314798055;6,068855923583338;-12,100139628693993;31,536153026721024;83,66415346429669;50,51355459888178;-0,3973959370159366;3,3668054567275285;-18,210696182901337;5,389921513034734;5,734283083945077;2,146124364680575;94,91520502907902;25,341034795150712;14,291568188828148;2,6771108839175626;-0,10130899020959179;0,7582250604287668;-14,028022969996522;6,222860748651498;54,848744670835856;13,274572578986737;-1,739295692139811;3,6936542713859426;-25,436629454020768;5,42830541146805;6,042930266583744;1,8984569028008162;149,13919410213413;34,93824962880032;10,62777535048939;5,052654199070116;-11,627306619321343;5,11356582395871;5,886366927378139;16,952546059242426;53,82668456201549;15,953844016276117;-1,1134642404873658;0,7015898161125221;-7,43912285482422;1,2334812360649978;-0,8546452299338473;0,10848442771793115;38,249628680937704;7,167672949657673;11,939152500157386;0,4086257420852963;6,382254509095988;0,5227100837294201;-0,06472032819367934;1,120467706212996;95,11313201224155;4,67376273501565;-7,797069996895276;1,1589900638268573;-18,558724608416746;1,9568978595437942;-1,4003569022519244;0,17741193438421052;133,36276069317924;11,241730498978226;8,32438754229995;0,4504745378165735;2,7286277724088244;0,4586758243658835;-1,8369506785797554;0,334936807711497;56,863503331303846;4,479138602599076;4,630450097730757;2,4048930426598685;-2,2095119479143905;4,692363947620663;-2,698310289851012;2,1769762596391513;30,86954642438412;13,733573957343044;12,575721619969016;7,172254040712297;-0,26800656546401724;4,221078291522585;0,45567714642169294;2,381228923335964;52,82593973418308;25,60156414043424;3,575390999255295;6,4201155030284465;-12,605953085686895;12,342973593998453;-2,4735749713200144;1,4043946481746739;66,85341677001597;38,910630225747056;13,283410513948382;1,8796228814829736;1,5880789619189386;1,8165466271705173;-4,537503059087637;5,051885664734944;52,358262849686845;11,86696716491137;31,779397108325945;7,362916080046295;-10,283232614974159;5,679271296882572;-11,890544389712717;11,154353559585688;233,89673854123012;52,08741034227045;9,046817385425902;1,0002197135975879;2,380806240813237;1,5096961684442374;0,9804531878588876;0,202069277533652;61,72257372839039;13,123558081998555;28,35185987260504;9,523776633340264;-18,171704406382116;6,8090907215885075;-6,279334986205366;1,3814853992041165;207,32467002094387;54,09836307951918;38,297906237728554;5,668246172214916;-3,294123488821903;4,482349315641649;-24,472514093120047;13,95162553512609;266,738371725262;56,814789286789;61,11358255575609;2,8045738611154714;27,691193318001904;8,71857646586035;7,568037901187526;1,1471599427026982;45,86153914105255;6,21964149353269;457,5849132591331;62,385915955736635
