Subject;Session;Study;Task;Contraction_Mode;Recording;Muscle;Intensity;Num_Reps;DPF_Method;OLS_Status;SmO2_Channels;Mean_Max_HbO_S2_D1;Std_Max_HbO_S2_D1;Mean_Min_HbO_S2_D1;Std_Min_HbO_S2_D1;Mean_Slope_HbO_S2_D1;Std_Slope_HbO_S2_D1;Mean_AUC_HbO_S2_D1;Std_AUC_HbO_S2_D1;Mean_Max_HbR_S2_D1;Std_Max_HbR_S2_D1;Mean_Min_HbR_S2_D1;Std_Min_HbR_S2_D1;Mean_Slope_HbR_S2_D1;Std_Slope_HbR_S2_D1;Mean_AUC_HbR_S2_D1;Std_AUC_HbR_S2_D1;Mean_Max_HbDiff_S2_D1;Std_Max_HbDiff_S2_D1;Mean_Min_HbDiff_S2_D1;Std_Min_HbDiff_S2_D1;Mean_Slope_HbDiff_S2_D1;Std_Slope_HbDiff_S2_D1;Mean_AUC_HbDiff_S2_D1;Std_AUC_HbDiff_S2_D1;Mean_Max_HbTot_S2_D1;Std_Max_HbTot_S2_D1;Mean_Min_HbTot_S2_D1;Std_Min_HbTot_S2_D1;Mean_Slope_HbTot_S2_D1;Std_Slope_HbTot_S2_D1;Mean_AUC_HbTot_S2_D1;Std_AUC_HbTot_S2_D1;Mean_Max_HbO_S1_D2;Std_Max_HbO_S1_D2;Mean_Min_HbO_S1_D2;Std_Min_HbO_S1_D2;Mean_Slope_HbO_S1_D2;Std_Slope_HbO_S1_D2;Mean_AUC_HbO_S1_D2;Std_AUC_HbO_S1_D2;Mean_Max_HbR_S1_D2;Std_Max_HbR_S1_D2;Mean_Min_HbR_S1_D2;Std_Min_HbR_S1_D2;Mean_Slope_HbR_S1_D2;Std_Slope_HbR_S1_D2;Mean_AUC_HbR_S1_D2;Std_AUC_HbR_S1_D2;Mean_Max_HbDiff_S1_D2;Std_Max_HbDiff_S1_D2;Mean_Min_HbDiff_S1_D2;Std_Min_HbDiff_S1_D2;Mean_Slope_HbDiff_S1_D2;Std_Slope_HbDiff_S1_D2;Mean_AUC_HbDiff_S1_D2;Std_AUC_HbDiff_S1_D2;Mean_Max_HbTot_S1_D2;Std_Max_HbTot_S1_D2;Mean_Min_HbTot_S1_D2;Std_Min_HbTot_S1_D2;Mean_Slope_HbTot_S1_D2;Std_Slope_HbTot_S1_D2;Mean_AUC_HbTot_S1_D2;Std_AUC_HbTot_S1_D2;Mean_Max_HbO_S2_D3;Std_Max_HbO_S2_D3;Mean_Min_HbO_S2_D3;Std_Min_HbO_S2_D3;Mean_Slope_HbO_S2_D3;Std_Slope_HbO_S2_D3;Mean_AUC_HbO_S2_D3;Std_AUC_HbO_S2_D3;Mean_Max_HbR_S2_D3;Std_Max_HbR_S2_D3;Mean_Min_HbR_S2_D3;Std_Min_HbR_S2_D3;Mean_Slope_HbR_S2_D3;Std_Slope_HbR_S2_D3;Mean_AUC_HbR_S2_D3;Std_AUC_HbR_S2_D3;Mean_Max_HbDiff_S2_D3;Std_Max_HbDiff_S2_D3;Mean_Min_HbDiff_S2_D3;Std_Min_HbDiff_S2_D3;Mean_Slope_HbDiff_S2_D3;Std_Slope_HbDiff_S2_D3;Mean_AUC_HbDiff_S2_D3;Std_AUC_HbDiff_S2_D3;Mean_Max_HbTot_S2_D3;Std_Max_HbTot_S2_D3;Mean_Min_HbTot_S2_D3;Std_Min_HbTot_S2_D3;Mean_Slope_HbTot_S2_D3;Std_Slope_HbTot_S2_D3;Mean_AUC_HbTot_S2_D3;Std_AUC_HbTot_S2_D3;Mean_Max_HbO_S1_D4;Std_Max_HbO_S1_D4;Mean_Min_HbO_S1_D4;Std_Min_HbO_S1_D4;Mean_Slope_HbO_S1_D4;Std_Slope_HbO_S1_D4;Mean_AUC_HbO_S1_D4;Std_AUC_HbO_S1_D4;Mean_Max_HbR_S1_D4;Std_Max_HbR_S1_D4;Mean_Min_HbR_S1_D4;Std_Min_HbR_S1_D4;Mean_Slope_HbR_S1_D4;Std_Slope_HbR_S1_D4;Mean_AUC_HbR_S1_D4;Std_AUC_HbR_S1_D4;Mean_Max_HbDiff_S1_D4;Std_Max_HbDiff_S1_D4;Mean_Min_HbDiff_S1_D4;Std_Min_HbDiff_S1_D4;Mean_Slope_HbDiff_S1_D4;Std_Slope_HbDiff_S1_D4;Mean_AUC_HbDiff_S1_D4;Std_AUC_HbDiff_S1_D4;Mean_Max_HbTot_S1_D4;Std_Max_HbTot_S1_D4;Mean_Min_HbTot_S1_D4;Std_Min_HbTot_S1_D4;Mean_Slope_HbTot_S1_D4;Std_Slope_HbTot_S1_D4;Mean_AUC_HbTot_S1_D4;Std_AUC_HbTot_S1_D4;Mean_Max_HbO_S1_D1;Std_Max_HbO_S1_D1;Mean_Min_HbO_S1_D1;Std_Min_HbO_S1_D1;Mean_Slope_HbO_S1_D1;Std_Slope_HbO_S1_D1;Mean_AUC_HbO_S1_D1;Std_AUC_HbO_S1_D1;Mean_Max_HbR_S1_D1;Std_Max_HbR_S1_D1;Mean_Min_HbR_S1_D1;Std_Min_HbR_S1_D1;Mean_Slope_HbR_S1_D1;Std_Slope_HbR_S1_D1;Mean_AUC_HbR_S1_D1;Std_AUC_HbR_S1_D1;Mean_Max_HbDiff_S1_D1;Std_Max_HbDiff_S1_D1;Mean_Min_HbDiff_S1_D1;Std_Min_HbDiff_S1_D1;Mean_Slope_HbDiff_S1_D1;Std_Slope_HbDiff_S1_D1;Mean_AUC_HbDiff_S1_D1;Std_AUC_HbDiff_S1_D1;Mean_Max_HbTot_S1_D1;Std_Max_HbTot_S1_D1;Mean_Min_HbTot_S1_D1;Std_Min_HbTot_S1_D1;Mean_Slope_HbTot_S1_D1;Std_Slope_HbTot_S1_D1;Mean_AUC_HbTot_S1_D1;Std_AUC_HbTot_S1_D1;Mean_Max_HbO_S1_D3;Std_Max_HbO_S1_D3;Mean_Min_HbO_S1_D3;Std_Min_HbO_S1_D3;Mean_Slope_HbO_S1_D3;Std_Slope_HbO_S1_D3;Mean_AUC_HbO_S1_D3;Std_AUC_HbO_S1_D3;Mean_Max_HbR_S1_D3;Std_Max_HbR_S1_D3;Mean_Min_HbR_S1_D3;Std_Min_HbR_S1_D3;Mean_Slope_HbR_S1_D3;Std_Slope_HbR_S1_D3;Mean_AUC_HbR_S1_D3;Std_AUC_HbR_S1_D3;Mean_Max_HbDiff_S1_D3;Std_Max_HbDiff_S1_D3;Mean_Min_HbDiff_S1_D3;Std_Min_HbDiff_S1_D3;Mean_Slope_HbDiff_S1_D3;Std_Slope_HbDiff_S1_D3;Mean_AUC_HbDiff_S1_D3;Std_AUC_HbDiff_S1_D3;Mean_Max_HbTot_S1_D3;Std_Max_HbTot_S1_D3;Mean_Min_HbTot_S1_D3;Std_Min_HbTot_S1_D3;Mean_Slope_HbTot_S1_D3;Std_Slope_HbTot_S1_D3;Mean_AUC_HbTot_S1_D3;Std_AUC_HbTot_S1_D3;Mean_Max_HbO_S2_D5;Std_Max_HbO_S2_D5;Mean_Min_HbO_S2_D5;Std_Min_HbO_S2_D5;Mean_Slope_HbO_S2_D5;Std_Slope_HbO_S2_D5;Mean_AUC_HbO_S2_D5;Std_AUC_HbO_S2_D5;Mean_Max_HbR_S2_D5;Std_Max_HbR_S2_D5;Mean_Min_HbR_S2_D5;Std_Min_HbR_S2_D5;Mean_Slope_HbR_S2_D5;Std_Slope_HbR_S2_D5;Mean_AUC_HbR_S2_D5;Std_AUC_HbR_S2_D5;Mean_Max_HbDiff_S2_D5;Std_Max_HbDiff_S2_D5;Mean_Min_HbDiff_S2_D5;Std_Min_HbDiff_S2_D5;Mean_Slope_HbDiff_S2_D5;Std_Slope_HbDiff_S2_D5;Mean_AUC_HbDiff_S2_D5;Std_AUC_HbDiff_S2_D5;Mean_Max_HbTot_S2_D5;Std_Max_HbTot_S2_D5;Mean_Min_HbTot_S2_D5;Std_Min_HbTot_S2_D5;Mean_Slope_HbTot_S2_D5;Std_Slope_HbTot_S2_D5;Mean_AUC_HbTot_S2_D5;Std_AUC_HbTot_S2_D5;Mean_Max_SmO2;Std_Max_SmO2;Mean_Min_SmO2;Std_Min_SmO2;Mean_Slope_SmO2;Std_Slope_SmO2;Mean_SmO2_value;Std_SmO2_value;Mean_AUC_SmO2;Std_AUC_SmO2
001;001;Valoxy;Isometric;Isometric;semaxone;VL;20%;5;Fixed_4.0;Not_Applied;S1_D1+S1_D3+S1_D2+S1_D4;2,6542545914996465;0,6643364390629258;-2,1581406079932064;0,40970653118637096;1,4722073233736936;0,9569580770584658;12,484679324353982;2,792737290927498;4,958682245823801;0,39102670460652605;2,462724298153561;0,6529352676860156;-0,38988552711698715;0,650245120163257;37,12660610692312;4,371676919663701;-1,5671722036730455;1,2062445933407002;-6,408479180049392;0,6728333403621348;4,489907467423673;0,9592670908370072;44,64211800953088;6,070170458110917;6,996025521424566;0,7194965042123309;0,9871353607125979;0,44109833561784334;0,34360459284681555;1,0774204392697282;29,718017120392847;4,5565572069622124;2,126976955394838;0,7331272495548763;-6,968352558452852;4,497185153534284;3,756290000783916;3,514310825556843;27,710501035260393;17,348108229686236;6,4445032006287235;1,2332320354025137;2,8725406123261172;0,6278526917330974;-1,0594073772030856;0,9355492881325063;43,895002386847;6,474011089133349;-1,3305178363038;1,2498856944368972;-12,80989806181807;6,136532493149008;6,27194009750784;3,559974943686359;68,03615156527943;23,999512738850463;5,766756116208229;0,4823586548542458;-1,5310271552228056;2,445118935816949;2,9192041805853757;2,5145040641152883;26,68625964625961;6,892302167686158;3,9588264995225004;0,6044757730457807;-0,354505801401925;0,3141542127980383;-1,0136408843308224;0,3678482174907458;27,037371512303014;4,5791337521781355;3,5811108699850878;0,3366034052165192;1,7474936901747806;0,3815035986373762;-0,29353172112830167;0,8636150259657172;26,029196771945443;3,320397238761924;1,5531809478145733;0,8636386441034883;-2,7154300133523908;0,5506115127008521;-0,6786443265335562;0,421122114428907;13,30100129062535;3,6493145412080734;7,470991452143849;0,3791871396002443;1,9852248427892865;0,35975484782362216;-1,3812241299028822;0,18206919887732617;52,63683703576845;1,6124438179786986;5,436176503808049;0,7333539337282333;-0,6156068979889416;0,3958291050652682;-1,4510259105436834;0,5389293672510638;36,973901601414425;4,73898667607788;6,240946552582097;0,2635798321996305;2,8013862217178995;0,5388637112639749;-0,9857306048826215;0,40249715838654315;45,13398792013843;2,9388938584505078;0,6958348763222632;0,833378157210559;-3,5961893503449387;0,6768165509123839;-0,6812962865765295;0,39366714245073026;14,14288573348922;3,941909118832278;11,635481525536866;0,6755834676942021;2,334893440516349;0,4155062750773707;-2,3286595441493114;0,20891277904309516;80,92469257200128;3,4069272817691747;4,428255132090487;1,318562056135428;-7,342578112789544;2,953522001322192;3,4906744653320287;2,338736681937935;43,276401825638985;15,397452956488564;4,083785453540535;0,5879380933687461;0,6916212538927858;0,26759351637250045;-1,0252741277100959;0,46865582678949336;27,219234488692745;3,2170912985820306;3,227803834316333;1,4273185232010799;-11,200460428172585;3,62607939656248;5,779494650744529;2,976944051435635;66,96871113887224;18,302211618708462;5,725045645586277;1,2341857566666155;-3,558867055787995;2,187493559983265;2,8469100364902182;1,9333866171781466;22,55268042174153;11,33670946137135;0,8802135874674422;0,5031827918809281;-2,090215406610791;1,0944011534243443;0,6757732064914354;0,48527359420760935;11,873972988198272;6,064352845872968;2,5880678129088435;0,3708219862580917;0,7327621550634371;0,1822242008245074;-1,6101118225533988;0,3987266577476161;17,32026918135921;2,178214889195555;-0,049309771268719646;0,6154395313341983;-4,433932014644786;1,3331187214778246;2,1810061764774096;0,8378847211992474;27,711957195340442;7,737503966077606;1,8641687018466215;0,3801467651081977;-0,1704758104029153;0,726938718712856;0,28108421146312923;0,09173428010459835;9,213469931077224;1,7320333739865665;2,2630501620521217;0,4749746328023004;-0,3442852955991545;0,9037074613561769;-0,7974012882010613;0,3211553072643597;13,899055164602425;4,390579467941302;1,7686263441001078;0,4062377415123088;-0,12738569293631855;0,5444441287454983;-0,6159234214611928;0,24377876897175602;10,615624390318306;2,6361067712411366;1,7321479043167354;0,4166822128232868;-0,8489048236355046;0,4354819654911149;0,46949311155403894;1,26601599919344;7,459866816334812;2,9745301516894878;3,5203272684106204;0,7216977532446125;-0,2614953693155062;1,2138643442659605;-0,999514809291051;0,3953210957666301;24,044087555578493;5,363790940767075;78,24881147265653;0,7828785454329077;75,5541359916987;1,5094779146958515;-0,19252208364899123;0,799978647632049;77,21214275872809;0,9037072884038904;772,0735290445429;9,063462975618775
001;001;Valoxy;Isometric;Isometric;semaxone;VL;40%;5;Fixed_4.0;Not_Applied;S1_D1+S1_D3+S1_D2+S1_D4;-2,8579322730498045;0,9487823664557656;-11,769304148313267;1,0782052621521063;2,9891677815489306;2,0281512352140436;73,88035053150129;9,487560634401904;12,19422642433349;1,222011400244104;4,932729314570175;0,954439344239842;1,1241433466452018;0,073903343965955;84,36301977172765;9,872138267679228;-9,757777751711306;1,7349246600906092;-22,14178215829344;0,9111572572749949;2,114099668538012;1,919102833258426;158,24337030322891;8,805702270274379;7,960982930494913;1,5204123461896433;-2,63443834148297;1,897924241077353;2,430126633194705;1,4647601225088787;31,104879973076216;6,466403897726996;-3,157902562616212;0,8910862763811163;-27,91084481040201;4,110441874240265;11,41949876191091;9,192201208622505;165,30455612085024;25,835352042246175;14,556270822245773;1,1637011426158668;7,2490723537263815;0,7584519629582382;-1,1708012204659508;1,1409500505522714;111,01922059210244;10,627649074188222;-10,718393952861973;1,6808669965693444;-41,878558863378245;3,99813385029096;9,667977414032444;7,565868108869554;276,3237767129527;30,878386740438877;7,230671670436353;1,4759915499365093;-15,18825288055809;3,970719517514991;6,323963193022941;5,5236778651227;93,93365756890621;19,91909762365322;3,644352236792552;0,17289137315069233;-3,347740223575041;0,40709774081115985;-0,8246981102967725;0,053427924836558456;22,151676750330328;2,1612120286226246;9,581971600651709;0,7673071063937835;4,703377755939661;0,5519408444784466;0,4424465631535538;0,7927220950917436;73,06963416449244;6,909100454198257;-1,1531220452110431;0,6790798906330304;-10,921318378442518;0,7884207435757676;-1,2240655138638794;0,08659139780396599;69,19800790325198;7,482952993687979;9,959523894203263;0,9804639281871373;3,1709716449431977;0,5087153731600069;-1,4488445051722019;0,36220193253250155;76,94128034397087;7,293418659055897;3,643562280000856;0,3090579092136461;-4,326353214027793;0,48219727128404993;-0,9233966786375969;0,07399443611323438;24,10791262135473;1,435155407042005;12,425608826987963;0,7439780849199256;6,311829480069495;0,785284082870327;-0,02139331218053351;1,2290882149702114;93,54741870200849;7,171556533710972;-3,0499352709161114;0,6358025863074379;-13,342687201938997;1,0021477859063306;-1,4209938016120143;0,14337616142870502;94,89807323330754;7,773737503115765;12,193171131722481;1,2181345985375849;3,390389559897661;0,4811271364893822;-2,071857061154756;0,2174094075069251;92,19676417070943;8,113544449926952;2,5189475159121937;1,021787880491326;-19,833670974398807;1,4988829982154932;12,988091962773186;7,771856670840673;113,69768655601737;11,87448611366886;7,803283217811722;0,1504599962689587;2,1327004393157947;0,14184528098145718;-1,3197165713229482;0,05818453426808419;55,86811914818547;1,7748014986011629;-1,0753689571914162;0,8100285506730561;-27,347338686420596;1,438061862444183;15,118710188752534;9,069729524505199;165,7549091281402;12,164941490272238;6,129591124472108;1,2654879325454669;-12,378967534509503;1,6887115686156933;6,7771609188604724;4,737130618272441;76,15007595659657;8,79062880496258;1,8862556926387346;1,250943975593709;-0,899606053608777;0,7678408209836138;0,15958566790370438;1,2699746334185587;12,238330895667948;5,861917049118273;5,400246679051644;0,26660534673844716;2,059824779327559;0,1991091976233379;-1,2366517907930554;0,9168281207473259;38,4723311150655;2,1712854387098446;-1,2303074370803024;1,037003992214527;-5,255393808878397;1,6240734204351623;3,714219319370617;1,7414431970374693;34,77875427509485;13,033043963207525;5,909768298186387;1,6769538151248233;1,3583568547627785;0,7315225431070281;-1,0850881952010616;0,3176286134625746;42,16590795503614;11,96528894123777;9,113297349796849;4,054079416121234;2,69984911735943;4,054570927881869;-0,7064326329333791;0,1525382690157451;68,11241103038371;40,807450478396376;7,857360116966484;3,71401321703571;3,417642094860317;2,948857067545799;-1,716382232886192;0,77370664199321;56,588735627142434;35,025543594746146;3,661297039154372;1,1859983346722371;-1,2753239614800815;1,1438888085946004;0,1538173914085609;1,8135222242181068;18,507549749944445;7,755419461016347;15,382998069825257;7,7833858771163;6,365319978934977;7,109008834318664;-1,8926850806791393;0,39619625481411547;124,35812331683644;75,27887629636751;68,57478322913373;1,7941543398235116;60,23831669690496;2,311582976150268;0,6348124406757775;1,757087385371987;64,41827364061275;1,977723866010908;643,8922722747762;19,82657741639583
001;001;Valoxy;Isometric;Isometric;semaxone;VL;60%;5;Fixed_4.0;Not_Applied;S1_D1+S1_D3+S1_D2+S1_D4;-6,492681386155722;1,6513884557656793;-16,373683133992294;2,566915786113143;2,327276548432497;0,4709274774531698;118,8991884156211;19,183577370993763;17,3886009464817;1,0055749653137787;5,952179563340712;2,073319292174104;1,700488010382891;0,15708236493886774;115,74872203006029;12,923944581716519;-14,962614777387264;1,5439451512813718;-30,70793092345151;1,9386567452498307;0,19460910361503236;3,320839780100477;234,64791044568136;13,493391944979445;7,703837312560674;1,975291379865393;-4,748106014726931;3,7493337829237428;2,1984861371872486;0,5970920960999831;44,073493196147616;15,688670426798607;-4,722996461297393;0,8707082015112261;-10,681514367823782;0,7241696622427053;-0,11525903264599169;1,186809997471611;80,21803960745294;2,3800998984916797;16,35720489065799;0,6960661469179107;6,044159844609361;1,7929091505860362;1,5157320975693163;0,1581498747756978;114,25330614758863;11,044117196455208;-11,304473152062329;2,9713064773390636;-25,59722123030283;0,7824067638419148;-2,194761083133506;0,5024646429278345;194,47134575504157;12,145730452712494;7,864457627317544;1,4687123296997022;0,7143715027825795;1,0265802534387458;1,1005160664925673;0,21816718773009783;34,99223764733044;8,68804107434135;4,1270940756725185;1,0729131648290515;-5,657765805403966;0,7355594036347525;-1,2182423148773058;0,09767685045063751;29,500992026398215;5,7026054246315505;14,317232125229946;0,24739819894626985;7,0935417651028585;1,122347326387083;0,0019460561061361403;1,4411847743697241;113,6055228419676;5,829986435208015;-3,3165946672932334;1,801995589932305;-17,67249406006037;1,2987952346289489;-2,02857894094654;0,453404142534242;124,21344158161006;10,007355615044416;13,217421253198802;1,7666637332880195;3,979707818464888;0,3882891972939505;-2,111345289665916;0,4614116719479229;102,9976041023252;13,112314708272793;2,390860736536829;1,3057088821158105;-7,496586876664575;0,9119239725142754;-1,336832476986513;0,1664413047484761;38,40062825964203;6,040102802194484;15,968831810785229;0,6041950052334585;7,472974568680184;1,7185666010260012;0,6933162150704671;1,3440254239595815;123,51275429410411;10,668252607055287;-5,2337094574096;1,9887683178559379;-21,860328611435484;1,281085755640152;-2,4228357005993546;0,44617138128635214;155,41451200350235;10,347143893736884;11,523917446814277;2,730660290028786;3,7968275349406553;0,7984840222124037;-1,7874052502969904;0,5171568235870679;91,61099658470592;20,475607321872218;0,7119120358930344;1,9088081000875088;-14,684252128851648;0,9890857748609704;6,026165695675246;4,033616403475363;89,37829050030575;6,160569540908792;6,651150725306576;0,8271546702837101;3,130423278599033;0,22117048544455128;-0,673692568005467;0,5093673937839105;52,260731530152654;6,807246164903971;-3,8110078169446084;1,7167755849458521;-20,89362587243672;0,47850620651091863;9,347639458372392;6,926276685865022;137,92172947260283;3,861128969676741;5,435645548373655;2,1635705159460357;-9,070057427585628;1,5522266387390515;2,6389129801017814;0,3566162221197033;57,768091379105535;5,888208721080051;8,341311807205887;1,7530127394061406;-1,2437194184429017;1,1927452170020123;-1,4017215474144868;0,3323093751948677;54,93484232247141;9,67750299551697;6,3533418496179905;1,0279984586664206;3,017732058100613;0,5424600701120303;-0,17728738399699415;0,6904154749363943;47,177444696208006;5,092854457511481;4,1222146939190045;2,503073053755864;-5,010434398567938;1,9281147033983221;-1,1619363450851186;0,4063850392396467;31,589375228144064;12,977373898321614;13,806724529404523;0,8781644488831681;2,3687195572793547;0,9068315774375254;-2,4817804422958476;0,7692270125509802;97,72558356375524;6,806101268378025;21,04356838378464;3,520912065655106;-0,5129157951218617;1,7964054986215925;-2,5418007236623197;0,37474811925699714;138,55608664236485;27,438525177472155;15,17080332098943;0,6026297848304382;2,7051920563606497;0,40192958762337894;-4,651188896597847;3,0477144093110167;103,81386527511476;4,18122513221734;8,009364123821438;3,4970659784883167;-3,923454395837284;1,5654523231536732;-1,3631403933166486;0,30009472675484666;51,110184385355865;21,037328051583497;35,56073360230604;3,7164074408126866;2,547093828546232;1,9294435336260096;-7,133840590183786;1,5722988055344107;239,61806867774789;31,85697230028924;68,00949442653774;2,5222872863456196;55,076368149606495;0,963011747678252;-1,9609465166014988;0,2513277227994049;61,081707615451464;1,7256439576408955;610,4412881333501;17,29463976601964
001;002;Valoxy;Isometric;Isometric;semaxone;VM;20%;5;Fixed_4.0;Not_Applied;S1_D1+S1_D3+S1_D2+S1_D4;1,810900437183306;1,739024745697553;-3,0447741284088137;1,4627312026452315;-2,6751801378159237;1,794356032182935;19,270542140023228;3,924550080529305;3,785183706434536;1,276547000565957;-0,17155356691677;0,8057847823316386;0,5050223934179568;0,10031057965165031;23,377278426499323;6,895335412177788;1,4213572913974981;1,7228080763642577;-6,526464348380233;2,494420922392287;-1,074772983048559;0,16315052614875175;36,82998648561339;12,28594988368326;4,709347995306358;1,3657847125539042;0,1567625278030495;1,2639586766494335;-3,6549055876337064;2,319487800145099;18,179139616337245;11,366099186558028;-2,2214858271942353;1,740399513729601;-7,017151737017461;1,879235562177136;1,3995398073186522;0,6277777616364841;49,51020054205189;14,599914250021516;4,397014503400066;1,5289697337044428;1,7978840613535456;0,6555419761102153;0,3369620795425866;0,10695659307009904;33,071264255200376;12,202475140725872;-5,977033672488529;2,380711340691048;-10,654792485660924;2,735751046051069;1,712858546392301;1,0754019526466663;82,29790689649734;22,797986415098386;1,7683168739815414;2,0712544490499534;-4,191673411631752;1,0874193902304186;0,7864954245912141;0,2017821821103158;27,849449796092237;4,616505972062895;-2,235855021193447;1,6575025570688973;-7,721984036591449;1,7743038101637314;1,3733528790145553;0,39525113900750924;54,62100764876662;13,785497103758642;6,201663091331325;1,2055073611346585;3,3055160163852713;0,5685687636588581;0,2378703880877004;0,4527185164885612;47,42419357859683;10,258819690647652;-6,477002179627561;2,7768409716871885;-13,52756084067767;2,73931213011632;2,7692232191741133;1,4963167269783815;102,04520122736344;22,856138258598477;2,3411895766241604;1,014773298451965;-3,327694105298523;0,8974160505581434;0,6986992103479174;0,11967099716300182;20,87385483232448;4,866588255791268;-2,257760962182333;1,7803336392388465;-8,616853802253122;1,8989415080494265;1,6714595191640398;0,5148234303190452;56,98014500340148;14,147413307390137;3,8667104091235087;1,7049719864529345;-0,042929195090809856;1,0178947516337074;0,46108404668015207;0,1063697179845825;24,74337990676812;8,667766183197752;-5,3130665317543695;2,5924668013311836;-10,412309265174986;3,0067202537434663;2,0136038410848274;1,2395799149444493;77,29151161476489;24,934481788540428;1,2158906689888709;2,358249357706942;-7,3782178058740016;1,2631965335705606;1,1721442466283216;0,3151602410417001;46,2457012259312;8,836021636413692;3,216414144401265;1,26692480586542;-1,1027505998167442;1,6316204570825077;-2,103766003931635;1,7916439549493577;20,260228820928212;5,611610685415138;0,9208362769009462;0,37275311070856626;-0,589844257002972;0,23636010057240503;0,23698209114043767;0,07070351454388324;5,673634690224157;2,1779358500552517;3,5271184791236303;1,0822133601846775;-1,8809662656955672;1,9713310252734577;-1,5145036923893542;1,174906532278854;23,749860057526284;3,7683336976421966;3,4192952504375524;1,1886164013696285;-0,35013672671555485;1,379498403216208;-2,660158311872511;1,2731278133689639;17,679975793406424;7,589669596384565;-0,23474492509108247;0,6469823678946485;-2,012494205523818;0,5373932338753445;0,3354180770047898;0,3720359480364318;11,814058778414724;4,6171260556169775;1,398327910007364;0,34482792210346574;0,044259421446622954;0,18135035140055353;0,16158597158386287;0,03439750101427399;7,97237587293196;2,42643434094802;-0,9749444547904307;0,8598114425813095;-3,085569734920561;0,6470560627319791;0,11604275920208859;0,39068824524798906;18,853537786431506;7,987438124940301;0,9201748517784273;0,5732790206470385;-1,264924671796199;0,36005415264205837;0,29213165027639615;0,06290428381381473;7,966331020604732;2,7304190073930084;0,46658035599899;0,9884088633117968;-5,312293207071862;1,4936875579347655;3,864008802411116;1,7659949086588693;29,558430357253542;6,987009415674582;0,4395880013441668;0,4143312658326241;-6,44586036319168;0,3838690524165112;4,613966903743153;2,1641072327535538;36,05485989608064;0,7936505230899253;1,9010282799408251;1,420609599505073;-0,8438864512917575;1,290858862033569;-0,4816307186432141;0,12325052054360858;14,681688136309239;8,294813290168525;0,7996833227493715;0,8355266692524755;-11,685749517849958;1,8598791908043615;9,890826764396575;3,4579667928627353;63,293996617969206;6,41802180670625;68,0885211222061;1,2167586905381766;65,49708847860038;1,285889811222511;0,09996301815912476;0,7537111405282035;66,92610547412644;1,2199293457693052;669,2027805104792;12,21197171298673
001;002;Valoxy;Isometric;Isometric;semaxone;VM;40%;5;Fixed_4.0;Not_Applied;S1_D1+S1_D3+S1_D2+S1_D4;2,3968116391835994;1,195479470274119;-7,162112369483525;1,5502701984307354;-1,3830647769046593;0,1111871122043452;32,302837026131634;5,74935338421615;11,262513097802954;1,8279998366311985;0,6143740916155596;1,5583166452012291;1,602834167633888;0,08471723708976084;62,146204971441385;11,786929078414323;1,78243754756804;2,362209677340423;-17,615488883342962;2,864142552397354;-2,8479349890650436;0,1805627324135812;91,71779981142971;14,868839557943293;6,9106491227105264;1,1662268258312622;1,743585607758958;1,1948818540129036;-1,515784972083182;4,875828983193831;33,7424416657402;10,922008318865473;-3,8884425750040563;0,43210463057167364;-14,605677877535555;1,0654856658350478;2,5864665182573585;0,41444357764070755;96,4052149176261;11,696475740952147;11,918999998340889;2,5767320615309193;2,347687878983244;1,697702862234083;1,499647777253937;0,08269233190262887;72,94777816345075;19,420185531842705;-8,51394420905033;1,5194672819887192;-24,53611507321932;3,9171018604019814;-1,039244190740208;3,034365158862166;169,00188824614762;29,686700929281383;2,9865970891133538;1,5301808970646424;-6,0042598709665915;1,902810921520809;2,0933720687470654;1,1975606438020696;38,68707704713237;5,523376561897686;-3,7562043197153074;0,838469214850152;-17,157567591961232;1,4547295581782322;3,2471220841658477;0,6141875026103453;113,47632151131435;15,530905981356897;15,66328400455733;2,7051174164008183;4,702108054210045;1,88917304790237;0,782150217771374;1,9461021234260463;104,16368449591036;21,698767586250955;-10,438295219393986;2,57827530048185;-31,93212493796557;4,508942017864157;5,57096293854967;1,3406441734859524;217,64000600722474;36,87849913659927;3,756972281680272;0,6881908461430783;-4,1998116254395725;1,6187648677884694;1,4961481896336464;0,7597444854842594;32,152074169867056;6,532224037028507;-3,6497295569914217;0,44666705983815075;-18,228492849287356;1,3933733122294127;3,3104861983695018;0,6269960636415964;118,29611477908804;15,134989839803549;11,79899929950751;2,579150061093091;-0,7083425322073428;1,7981955197927826;1,9283555533898713;0,1011333165402343;57,0883055963507;10,742570168667754;-8,576284737148274;1,7433516378872804;-24,925277259596385;4,101382272250019;2,7496201616060776;2,935638013747591;171,14710280438118;31,452048999528024;3,000125784713398;1,2624710886133788;-13,008970785422747;1,8170383488578492;5,393364154001566;2,0247293294332067;80,55422136274146;4,121879190729594;2,211417620839657;1,0476043751941029;-1,9861905027150826;0,7184859171456436;-0,5267817815603155;0,1194577381069651;9,48172713473293;1,3914128472956457;2,602989693088606;0,24390414884699263;-0,42194287379129447;0,5124584054815338;0,4523305117917856;0,08555818068319698;13,652155639841359;1,3172034188748227;2,618851949797614;1,4853343510641956;-4,065760699414841;0,9881935597523485;-0,8317665933585682;0,19905325145131494;18,53380435689451;3,485306875130354;3,1464799768719;0,7831597896666512;0,06137691994877694;0,8259519959950065;-2,0277796969915953;1,316761255762745;15,099865804887589;5,115194685517237;-0,15124302833244635;0,5422365461949495;-3,7956493839699688;0,43735557508660244;-0,5897044658867232;0,0726023867967368;17,67897759562349;2,249387802362165;3,452717972670166;0,4776677228056451;0,31261311580079887;0,47047673835417025;0,4901482361483945;0,05685568647575449;20,574030607728094;3,5051933324560367;-0,4638561441332453;0,7722293929751181;-7,140898462900322;0,8443367015130955;-1,077486368091933;0,10613491562438584;37,91133975028737;4,622435017759679;1,1482581613131702;0,47480695274349255;-0,5666775085239895;0,4789247156741906;1,3247405323082724;0,8304512331168372;5,762826294194534;1,850609971371058;0,18718976331819154;0,45619054580780327;-12,135385355738183;0,7992175743351576;4,334650123997748;1,039878264734904;66,60794271464206;8,684927554320556;1,7513017291661712;0,315344620201885;-10,197908176106576;0,35481421796222434;1,924402152189467;0,473175177962223;64,13783771852425;5,390118441805119;2,077340435017047;0,5168292515780195;-4,224756721989528;0,9112214670649715;-1,026300491587032;0,14071865637589617;15,495526488033098;2,166312574667145;1,4693552040477431;0,805304207580771;-21,522086519979105;1,1562124279336994;14,023011784189327;3,957520313686081;128,16246912405003;13,658307261245163;64,62130390152868;1,6891017590826685;54,12179164400625;3,293548678981531;-0,6461643864398517;2,010702596787682;59,42786955192031;2,490564335400538;593,8411951552177;24,996736105285116
001;002;Valoxy;Isometric;Isometric;semaxone;VM;60%;5;Fixed_4.0;Not_Applied;S1_D1+S1_D3+S1_D2+S1_D4;1,0238048970411353;1,7322010272690405;-7,883099820149496;1,6010852298472638;-1,2865383488589406;0,18303872636134802;45,138629048210255;10,71919633367382;13,965790270827375;2,1836921071872717;1,692894290844653;3,0029085466514713;1,9260103308764447;0,28374600950670054;81,74974993583024;18,62872326706199;-0,6690893938035173;4,701017045397612;-20,491080318026782;3,3487382988796366;-2,9654193776562194;0,43615427467702444;126,58643529470085;28,51688226672397;8,509279033214366;0,666542882164658;2,1436680414239304;1,3460491903702159;1,3230193532131052;3,4816263456864127;37,41433327096154;9,528974470636582;-5,433200438819433;1,6572748619671371;-17,70156608794414;1,852377415678451;2,7187003884186884;0,3923117657257493;122,73647488477862;17,359756519578905;15,235105420831838;2,9575547010705012;3,564161791222616;3,0965972319565815;1,8201784653161934;0,1620178887500632;95,8029592695448;28,482436097978617;-11,510252983114418;3,785933263625044;-30,65625209023907;5,007989824530349;-0,02170704856545296;3,7240452509571114;217,23543829213568;47,7701540366633;2,5297451411649057;1,408454698051732;-6,709893589820953;2,595057426420744;2,8945716688384513;1,6593182537476319;42,01948187388185;11,432950725633283;-6,082994229650277;2,918802053772101;-19,375200784261477;2,261455045834694;3,3167058928495905;0,23560005363536737;137,72261447059728;23,400824045518604;19,550059700886738;2,8417338272840436;5,774329554504531;3,4090907902196887;2,165537514836929;0,24815757572174937;128,5713227652982;29,688729253515664;-14,501819649717344;4,6044733598393615;-38,29848845145948;5,207593623615747;-1,6437805906259602;4,245702076683214;266,2079101296469;52,15027140396462;3,990859342881412;0,7506553416805171;-4,244485211992837;2,2496162420561583;1,3802995284551438;0,34564282853004474;33,13579896774042;12,175461801438711;-5,22516130980931;2,2381707098651797;-20,02336877172681;1,871158128854262;3,284953713043257;0,3264343415783654;137,13856143006905;19,94043543911282;14,860341128752731;3,1929280484293985;-0,688738425154604;2,4841898467723955;2,3818417246323316;0,10034521451411337;72,74380496345599;14,838921003203762;-10,660650172149525;4,0768263005067515;-29,449927357783444;5,361880593070663;-0,09829101011529495;3,5580230065172054;203,3200095238547;46,01376872127906;3,1058541467116405;1,0502267183015739;-13,935731448658377;2,3942121825041034;6,6807230880485005;2,4312684998589775;87,43153742422683;8,430726028528335;3,146898331338232;0,739988391223145;-1,5621548519084096;0,7128011484315918;-0,858995908237306;0,5086589150695879;16,689377574490123;4,556695657000409;2,809835147938712;0,42455284057671594;-0,509706411030995;0,8140726175508155;0,4674662144072981;0,0705435513306353;16,680413909406646;2,5686438436126884;3,627987925097478;1,1135045091500408;-4,0693284036303226;0,7655572540931916;-0,9961154028657411;0,14907837725331405;21,67099802378101;6,672764970205587;5,084262042550951;0,8611887411511967;0,6292378198519888;0,7748959284279895;-0,15330083035815903;2,793241939939486;24,37332624777813;10,118129632989394;1,534346397928696;0,6455292970429012;-3,3240115784668687;0,808241193923465;-0,6884643377988788;0,1152710994918879;14,900001385676552;4,902280995493075;3,975125023317413;0,4608724894830555;0,27890341953263514;0,8023676598256015;0,5504287720196951;0,06866765284699029;24,25837771389841;4,120436310563984;1,2554429783960608;1,2799849443763278;-7,241142612940491;1,1125019299962426;-1,2501459239294292;0,11649366094512907;35,478576572255896;6,439835731520677;2,451327076999983;0,6146374231315385;0,36924729949923674;0,6849783007638837;-0,30884750569635716;1,501437797555231;15,993827736687251;6,887071288593215;0,8845210317304859;1,189915403817384;-9,400961858717286;2,300474162321585;6,7182324025927755;3,2819488424179144;51,38031107813315;17,645098592735824;2,153816601094705;0,4770330396626037;-10,764082575237014;0,19128946718112064;1,8099225013614366;0,03942439673348738;69,11268453635397;4,035501822405996;5,54796186211723;1,8026430470974055;-3,2835133480611454;1,403918098459818;-1,2809640445609283;0,14344735649619292;28,851334905635802;5,730166148847533;2,7765414205423937;1,19494710816542;-18,678143286641465;2,0871203819454376;13,304160373625058;2,253034465022166;117,81050881792123;18,409314784534732;60,989371748424084;3,8379485225891448;47,68456878494508;4,487272647765399;-2,084692475313654;0,09809788720196887;54,673459272674904;4,342648930021725;546,1841516923738;43,47626373021342
002;001;Valoxy;Isometric;Isometric;semaxone;VM;20%;5;Fixed_4.0;Not_Applied;S1_D1+S1_D3+S1_D2+S1_D4;4,045347629525754;1,3243711111503293;-4,272030615442163;1,9566401968719647;-1,4508976179804318;0,7847482348678348;31,511139278576586;6,000924695600409;5,149476625487561;1,128195189202468;1,394775252066648;0,5174509234536654;0,45869335103315156;0,031392985942561846;32,328663687519764;8,566744512354417;2,4378891009021157;1,587386761215574;-8,3355378636256;3,708618438694831;-1,2420581639278563;0,2685334328254871;36,44896937461259;8,528036562767046;7,242229054063094;1,4268956577304828;-0,6684471043611542;0,6121992413151668;-5,323313017006992;2,2243832121792697;44,42922039221397;7,112919409725965;-0,8968473027737405;1,554457325360519;-4,229017090860852;1,9855296848553967;-0,2602196060109509;0,3131409865820848;23,371508012582357;13,310248442815565;5,307436942099249;0,9386715529743738;1,5809489375763373;0,6622037362032499;-0,8623955731794795;1,811582817916395;34,83626909974906;8,145013019207827;-2,723176857605584;1,9461393367689948;-8,44843416447739;3,2539712652664607;-0,443527340504439;0,47923973163601225;57,36646517727511;22,272932984295075;3,520118879984183;0,5445890594835554;-0,8965618411920555;0,6909840826360313;-3,4355226099287903;2,0264799593296154;14,948764070029446;4,402104344959119;-3,6220441219658968;3,1030438410660035;-7,4538252491841375;2,152805521254959;0,0830242440953108;0,7060138873297622;55,96400410266269;25,29807014729819;7,6230705602822555;1,7841570620263965;1,6615663253336876;0,4271310857498711;0,9000332359934948;0,21164107621396352;46,69045120192812;10,963233695067002;-6,074410989370193;2,670459144147216;-13,779137318641366;4,083266122286833;-0,015453756820558117;1,264828033663347;102,54084982153945;36,1084044063749;2,55454193998981;1,556782358091968;-3,9794687264097512;1,1777890578750145;1,2253216294625493;0,23205855474316361;22,248001902333268;6,667960624515091;-3,534792523776011;3,4555421769434456;-7,315277491129828;2,305762909086966;0,7840069334537058;0,5551257043207999;57,162608170473675;23,868672782649092;6,0731529668037565;2,045055979711428;-0,0624538322301567;0,46357413429329153;0,6954095821544654;0,11470396357970955;29,19557611403916;10,196749908891944;-4,765440582229613;3,267859918761331;-11,69942621944828;3,970351400870487;0,08598941516476191;1,1117803197963434;85,62209654896222;33,46782348612137;1,415126581036477;1,213729304433206;-5,981399723088481;1,6456470251432145;0,7697333597811644;0,09652696272169564;33,8711673120879;12,536856353097292;0,7008106906821003;0,6494495087044246;-1,9295165051670746;0,6694076444791058;-0,6033320621284054;0,437045751239702;9,881939171135839;2,6940402621745725;2,2614194613840253;0,4536282231153117;0,9504691944545994;0,5017630012811364;-0,6886470597758839;0,7755453037540421;15,954309647583461;4,419275387695083;-0,5879976820062373;0,8247729656058611;-3,2321479864270737;1,333376366468909;-0,303285365690264;0,03811181686164092;19,139707262353692;10,12767202178287;2,630735874169628;0,781298424912741;-0,8684785628011401;0,35107269936666635;-2,3842656544581606;1,5382674712216475;15,438377541477584;4,1060840871929045;0,10454133851264424;0,2744209002450051;-1,6608295498674213;0,7916523882576588;-0,41710219453750474;0,2517188094556224;6,420728248505514;4,031928629539533;1,5114324813765445;0,5023223790270583;0,17190149795686305;0,14115940516012357;0,17987173244458485;0,03441135129853357;8,674808449482233;2,954425172275886;-0,1925354101306595;0,2709004637240884;-3,024677292780413;1,3067334079090893;-0,3868329536127511;0,13699289760680652;13,974017255267;7,503819652292951;0,8745915543580891;0,31623806003489624;-0,36574344107288254;0,40694634362313764;-0,8831293383637974;0,3324583898630449;4,705131891264797;1,7172384587065228;5,334493640421238;0,936701429527612;-2,895275651229897;1,6302344281824388;-1,8133519386635626;1,3921564933173671;33,633890864302444;4,7992625413207985;2,358566736695553;0,25581153058147843;-0,13458013047297196;0,455143563060537;0,3489156503048333;0,06097272272261982;11,500233719773913;2,062624211164146;5,257964803668052;1,027258119341808;-4,9087609011755;1,8476495533437263;-1,457411496667078;0,15493608430903943;35,768528319492155;4,07506466746831;6,057675455897476;1,2762484697466139;-1,2395716218745387;1,5174256665332948;-4,1751576898961025;2,8475679769173965;35,933749477587845;8,913244193906435;66,58220177058105;1,9523809585311158;62,636675742571924;1,019788357266481;-0,2002676662073119;0,5366251411338665;64,58711397278923;1,3771877470768925;645,8339652114466;13,791625424945554
002;001;Valoxy;Isometric;Isometric;semaxone;VM;40%;5;Fixed_4.0;Not_Applied;S1_D1+S1_D3+S1_D2+S1_D4;0,5268449151200612;0,8400620439701157;-9,712584589260016;1,5259376516419523;-1,5867998363833835;0,17770369392106847;48,88678745775793;11,794354407814144;16,086837467550275;2,945523229428549;1,8092516018695828;1,991530255248495;2,0189117220289003;0,20179393566915796;90,37182682402708;20,644474327269876;-1,2824066867495219;2,539411926740402;-24,724116100151647;5,022953915925573;-3,432617407148656;0,33841410489968976;138,83232719644874;31,87410856078707;8,246737194367707;1,3791903652054374;2,0662024834963058;1,938985954486853;0,6999742720973005;0,7747455477580537;42,640405457873285;9,835919281016025;-2,1673764893440146;1,2907400381411238;-13,056728884658062;1,2099065589854994;3,0305840209939277;0,5217729310134304;81,85183968109277;11,338657202039778;13,612213510150596;2,483651007548032;1,53249365324077;1,7408815481481297;1,7337993007829724;0,18509147327469963;73,03088744105251;16,888610647889585;-4,924353188046089;1,922841738288792;-25,873149923781842;4,515163852504396;1,0531615070220992;4,735925049285781;153,58174718563072;29,89823830643368;3,5363560756306263;0,6376166236372914;-3,3523327268559697;2,0412955227833014;1,549378515225488;0,4885513165748465;24,04733082673236;13,327854005147806;-6,456251425300532;1,7089112468886116;-23,04522923487063;2,591492787784841;2,5282249181798284;3,7258802080054485;151,59180851631857;18,143002234929618;24,473144375378816;3,411605337394982;0,00964367262719763;2,5279605635337536;3,3237101450862228;0,32937867292803513;122,57353316675764;21,130352214066846;-7,987826288276013;3,3214122649187097;-45,690292544000144;7,470641707277658;-5,332007278563529;0,7488299415834385;270,0568393624368;46,610497192642;5,963050780936678;0,4112318267735986;-8,536979670753777;2,207637376006775;2,1668476858144734;0,43362583672363075;63,31331323559908;12,263749820468233;-2,6527057018224953;1,8615921478050226;-22,78027472114399;1,9010868212020613;5,2584259473636195;1,1117060170078519;154,42766339193764;13,30758920449856;14,762358381265589;2,96916772230862;-2,6518320299875744;1,650440180911157;2,402239203317181;0,3340461054360518;65,20716217650738;7,455722671956969;-7,276686890352761;2,56347645545467;-33,45874836772508;5,712121230905874;6,6853085436594055;4,700927255873701;209,28496244992215;34,22573654061379;3,110234995939395;1,5457315874629962;-15,820125879431206;1,6787178241797087;2,7454797968736306;1,3306238016772023;106,88490826640819;10,75262801348133;-0,2635836665434963;0,4153817765841191;-4,06722744236649;0,5094772932599073;-0,5695598002905858;0,07187481662339465;22,605782168252823;3,7237052672388957;6,329716905796591;0,9482987716387512;1,5699691061198844;0,7078979979164561;0,6662368291318681;0,06088704497689848;39,8955924505552;7,0598094125918465;-1,8335527726633807;1,046579957399384;-10,130479467658215;1,5542212404141311;-1,166142590820316;0,110506101899478;62,37587199506531;10,302429079929853;2,740165514966354;0,5063796664953838;1,017328915199288;0,5382701116952069;-0,22121253461405255;0,6565924487014239;17,430581719736985;4,909559731680077;-0,11623057644918933;0,417919315277051;-5,32350819297333;0,5730992769861056;-0,7422847981256534;0,06262308335439352;26,17809148548015;4,024627774928937;5,3194820992767164;0,5331285850749051;0,05386850336068298;0,6694157558011388;0,7108017939793392;0,032725782390558705;28,736471645574653;3,8184393652028246;-0,17009907980987232;0,8593868965840503;-10,556114404421866;1,1769351330717488;-1,4336865956600002;0,09275791769799877;54,498663138258124;6,861925105971858;0,8918672643108131;0,3452215834576325;-0,40795200374222407;0,7402369386418175;0,053701737520055415;0,583949084761233;6,186681079134083;3,0167059938882383;3,0595877543997356;1,696244963606833;-8,280619656562497;1,3929544124439295;-1,7089643589205665;0,31734074859926303;40,660481993261705;4,802183482729823;10,252988039770262;2,5140531748670347;-0,21339241148305846;1,1501254375684402;1,4921078753838772;0,3908860863208878;52,47703185833194;14,49711766003451;3,244791809815409;2,4564650692103727;-18,227584884042745;3,500187300203336;-3,13577869884119;0,6431536697490076;87,8516049090064;20,124976449207566;4,23333010810405;1,9497029288046037;0,415154273616543;2,3429890160953004;0,08713182019284163;1,2910313538762404;29,22007130106068;11,281515495994306;64,39067395351063;1,860380593099641;51,8262153301871;3,9702125200818186;0,5771317984522597;2,776407485581903;58,45363922936317;2,6921416547725907;584,0244497822733;27,061406463024618
002;001;Valoxy;Isometric;Isometric;semaxone;VM;60%;5;Fixed_4.0;Not_Applied;S1_D1+S1_D3+S1_D2+S1_D4;1,848543343260141;1,2670150581190365;-15,804371466637935;2,30321936815372;-2,4182991089205927;0,240946322745585;85,577935006831;16,528012768337796;25,372005821133932;2,673065764615836;4,094354038269759;3,1255001287429014;2,8086246410496196;0,14719891850807124;162,8722835262816;30,416033026759695;-2,2458106950096184;3,676365453365081;-40,71489869321332;2,765941591803777;-5,200103381972012;0,3610443672744725;246,41778980974513;32,48800127628473;12,953454895904446;3,271362963948605;3,955775620585487;3,5403980394491232;0,8063256124207445;1,5194876513726103;83,49711353839021;30,289259318073295;-2,850284820105053;1,797353303312778;-19,659715953905668;3,7053915029466995;-2,3587719681925576;0,22899755498344732;119,63751557492824;27,30486139333954;21,068009729940464;1,9207840081905354;3,0890573953057077;2,553481344764181;2,4385485544692043;0,09708203378558976;133,92420215232542;22,408196860205553;-5,939342215410761;2,6294257525029705;-40,42619848194183;4,018255427265784;-4,8024152907491295;0,3594449015927306;252,96252447330434;29,539626131451367;5,613159291851408;2,102100563285516;-1,6978557906419751;4,60888893935472;1,1873004631416468;1,3188931209333534;42,08719358381435;18,130057820497388;-9,493726832323725;2,179302764299014;-33,4567788761787;3,2178022186286457;-3,3021240513118513;0,2015762320276387;230,73139773335456;27,784654765264055;34,95511173451155;3,6951702381235565;2,7048289306892106;3,7781006367064687;4,102992310944955;0,3418046153437604;206,57176024432246;42,932277322729334;-12,198555763012935;5,019696534228996;-67,23755930438598;5,733810605232728;-7,392836793756503;0,37547146244723867;435,2719389414524;59,04060568712502;7,369889313377698;2,7382686035792045;-8,353785321967656;4,939073532763394;2,2901584004845246;1,0211933608997967;57,710004554861754;35,984686742083255;-9,686418633420317;3,373701337116587;-28,899481882235357;3,5153287332696928;2,251628394420189;3,860503423078317;211,06462615565388;28,413001056784434;21,922262764564465;2,1164283099865386;-1,2812480652967762;3,0049355953047083;2,942741623797688;0,15913073032552444;118,91392260693708;21,2435777459544;-11,805177385217629;3,797089177095659;-49,24205463090514;3,2591403811742006;-2,1496229477524613;6,276732915301974;323,66756036274126;34,90173801588466;3,0193861353261346;2,365768436854218;-15,575225238277408;4,4431079908781435;2,572906909115004;0,9267496663043888;109,75313068922307;43,28206680635526;1,4283999654357569;0,6867494731524233;-5,007541668508033;1,427990238513907;-0,9356954715051667;0,1574992338974163;27,927946163702348;9,226592195140698;9,633366426305509;0,798264956847068;2,4803283429402443;0,977254120838084;0,9405665357106322;0,04225816589534449;66,28315609066175;9,130873471410167;-1,0519283775044879;0,798317756264549;-14,481903299854675;1,1558101008584332;-1,810333475868612;0,17327966149318913;90,57655379304872;11,08036101100837;6,07396645678949;1,7861101655229314;2,567555486379656;1,7514811317064605;0,3053428066921565;0,7508764563239873;42,42904266221286;18,32623092164137;0,687236599007176;0,5574788057356076;-7,5858291465608305;1,039358508814395;-1,0991272051847067;0,0870897383477807;41,01063319290283;7,852946759601171;7,364151352880134;0,528435858502304;0,650093120175088;0,9237742375083245;0,8751831512984047;0,025970076868134198;47,05690585061782;7,267832534714716;0,037143478832087906;1,080483336121682;-14,880258266452932;1,0565079049872768;-1,9731852061710355;0,1065527867679669;86,93039563244834;9,856528294874087;1,869392061011423;1,1224334604513047;-0,7021082164217909;1,3652706687231189;-0,26281446257590774;0,6300363754741602;15,468951253628372;2,795386921723954;7,1618469645794764;2,527784243233766;-5,340371426062228;2,008316174497261;-1,4864216272577795;0,4258288972484654;35,645951796622434;12,371153714002773;6,358502832421894;3,1486268580987775;-1,9422180430961287;1,3431472505168627;1,068614250166784;0,3311454550718678;33,449112819108244;18,84153962784753;9,01602755691002;3,459740017869425;-10,215831371778782;4,139276241505352;-2,354492756351882;0,5490858003853587;62,87373370570268;19,094843259094716;6,092412654077162;1,910168154373952;-2,288566142952281;4,159390937345169;-0,24682393643753545;2,466172574725369;41,77734099209799;17,76478232148318;61,71977629634207;1,8945774331788265;42,464488088952386;1,2921136260888166;-2,6518575191955147;0,19594846775681876;51,27147825531877;1,3848154679790972;512,0447767028919;13,985095050687775
002;002;Valoxy;Isometric;Isometric;semaxone;VL;20%;5;Fixed_4.0;Not_Applied;S1_D1+S1_D3+S1_D2+S1_D4;-0,33156946848651014;1,4391325911040886;-3,8934383967296022;1,2972945543862535;-0,6453187292494895;0,20770575346637113;23,130347954006396;9,41591307490945;5,498641400345537;0,8180855286626741;2,240459926730087;0,8114516998025805;0,4742986077568281;0,08425312247930712;42,31721494301009;8,113830024044017;-2,8556836806395305;2,062553312077306;-9,028636725997176;2,1334108314292037;-0,7236210101258026;0,11751454655069031;60,66744698031789;22,679616521519254;4,092778814003012;1,0154772169300779;1,0001781644424441;0,6651925763334181;-0,5712790900288118;0,9134611045083826;23,968868794409996;8,821586904120977;-1,756524997604274;1,0677634158068663;-3,904826081471208;1,3405281576134251;-0,3411117047343535;0,4136436241698184;27,570465628203618;12,837610097146488;5,755607230189214;0,9269644474795755;0,53362077869985;0,9308658211079258;0,6459027768931589;0,108834164158483;34,810829638842016;10,020491790744934;-2,8441243725646275;2,069264712432877;-9,108316227132098;2,3464122133954355;-0,708838263682786;0,08368773283431766;61,89035340299463;23,103018777386698;3,455390218635794;0,6286566710452522;-1,8002384437266177;0,7834790311162657;0,8509030180671943;0,14002735014884246;13,425640757432594;3,5984667989890644;-0,5890388045347682;0,7587838386727056;-4,134422323336372;1,327563233313041;-0,6053263308305854;0,13808677684210685;21,92723053540805;10,951902893815669;6,266842744410729;0,8153229005766593;1,4561128566843782;1,2913326521491104;0,6093608075054769;0,06631162922208476;44,67927614662328;10,124432781399415;-2,8816136419392278;1,1292500824262848;-9,98593968279853;2,1350088613847498;-0,8488130860221312;0,10245145153454058;66,40301552625196;20,47803136723359;4,388737538757388;0,8903719874617438;-0,14264912543157812;1,604634638311607;-0,10040394024218738;1,2049300050064535;24,157175727946;5,493604751211975;0,9816687590237828;1,454793032923413;-5,3250163456278266;1,7341615417037446;-0,9353027467585552;0,20083213901370406;28,260605623037055;9,131708871156667;8,060172423932102;0,9952798209900601;3,4766230414311536;0,6492123767962907;0,6637622380282454;0,13904731303508136;62,73223741276687;9,185725686706496;-3,047813418556116;1,5598660911055418;-12,77205635011172;2,82553122138947;-1,21022211467829;0,10410506200362646;79,63446041066854;27,114149669235186;7,2433652144898755;1,6528740496622412;2,02802228378471;0,9135332856969911;-1,9410966959609204;0,40066810949649756;45,83001441486518;11,624098783351167;1,2877734937224565;0,6044490384633269;-1,8443859420783242;0,3030785020378813;-0,3882916003759078;0,03744111447671138;10,542652436450524;1,9614411246292123;1,5866386591139339;0,18521550851193447;0,6570628612116334;0,10337702293984187;0,12968736865715497;0,02194116784322355;12,200984051686516;1,1889600060716639;0,6070572622666802;0,6192836829919826;-3,3982729046939566;0,4092134436799942;-0,4849481283980325;0,04435551676496159;16,913531385529275;3,7015851660589436;1,994497739362765;0,5903890460575989;-0,3028667830909679;0,3242030690266956;-0,339151874421477;0,06431389753772816;11,0093128951242;3,359379675427449;0,3014731271348975;0,7799030605763844;-1,3588743088776918;0,42726116633024425;-0,13171059017144351;0,23611808080300062;8,119164024418671;2,5140500725845345;1,8336434294403456;0,23180948740428245;-0,026677265715444997;0,48730987856004954;0,2264546667533765;0,02414230703687552;12,007389960510853;2,5165537867877705;-0,3513228149956378;0,5240839834062386;-2,8993395652333858;0,8989267184177411;-0,2902631562496153;0,057953536281615155;16,752357657927067;6,46942156280017;1,660626532464618;0,740797702059297;-0,5391649626312472;1,0318693098481213;0,14291490445153648;0,38117995580613717;9,247680063852542;4,267373736715688;7,894098874423558;1,7069133869336324;-1,672497267247691;2,4704875252956153;-1,420258917325069;0,2210683369899236;52,14906856605313;7,69467857475307;3,9562003032432997;0,9852504802502186;1,3105809617928945;1,0951044783474897;-0,11246482953475412;0,49966368128923555;28,27478821592273;11,307625425917157;4,857717406156182;1,943496861738625;-3,8113400890411406;1,8199522506857917;-1,2855085013033574;0,26106489597390176;38,766305696151974;8,715750102082293;11,096733856950198;2,3527534569166066;0,38535555076013106;3,2858729163043465;-1,6313784673887337;0,39479768498366774;75,2478750431515;18,503631523499433;72,00776648725481;1,6940145595279945;67,04896097028306;1,0973258093054947;-0,6210612528133801;0,06682839931753531;69,25410893200808;1,6443975090748162;692,4925411014975;16,491848249610214
002;002;Valoxy;Isometric;Isometric;semaxone;VL;40%;5;Fixed_4.0;Not_Applied;S1_D1+S1_D3+S1_D2+S1_D4;-2,480038493488712;1,0244058883755065;-8,35841808002426;0,776844469862904;-1,069826687667138;0,17978503919925262;62,40240195568564;13,073365048335368;11,480966794059295;0,9812218228184509;5,211237231490871;1,8074191238669368;1,124904635188843;0,17083074614167706;94,45008964244556;13,851803580938094;-7,691275724979581;2,7972806751483867;-19,369130458513016;1,4416467823265104;-2,0695120152370112;0,3975295775629462;156,8524915981312;26,623170299208862;5,565931253084873;0,9529833189776606;1,8995073714895692;0,483541883237167;-1,8329023276235674;1,9461446953271446;32,04768768675991;4,096031675069872;-4,145831125306902;1,4844300446400986;-9,813549079473098;1,3525605123872126;-1,1021343674630397;0,10906981838998824;73,01084688210291;15,418582898053415;11,214903597834398;1,201235893161325;2,879135093519711;2,121128905589069;1,2667214511165732;0,19038750308337596;82,47835482247072;15,178394858374595;-7,024966218826611;3,542475487252054;-19,400081482303886;2,1855811775436598;-1,9558509473671581;0,3752868936441923;155,11283539016694;30,36887644592307;4,516435715230184;1,5704033578693444;-1,5705138412360131;0,9613571760551383;1,4371090833348983;0,5986885235184111;18,94745335714738;5,516434553919715;-5,28031969204348;1,5534743261250956;-9,707057763707375;1,2169950844120905;-0,9369670641403276;0,2625652036930968;78,44288816888236;17,2494408471438;13,334442658168683;0,7224058524935458;3,1144669627839034;1,6953508181539092;1,5538176575289444;0,18112947618458422;99,9561337543696;11,524419537406192;-8,588481437034417;2,6655383234954875;-22,040344111787242;0,9746820666935059;-1,8801175404475117;0,13906899395451133;178,39902192325198;27,338957031305256;5,919090603808205;2,193730128316234;-2,382488613257249;1,214431573745494;1,427210574443593;0,3914850007732206;26,666405737977538;10,12177050019546;-4,987954645386296;1,3664329438803868;-11,838287178833642;1,5164449310490704;-1,0045395593663733;0,28680305034998416;92,48012806142683;21,96002762784276;17,571277165579247;1,5770351136288485;8,077539453188788;2,6754353539052134;1,8752870404335944;0,21772123901369558;141,09697272384872;18,65577762372565;-13,065494098575083;3,9892582270381705;-28,538853612908788;2,8258680296407372;-2,8750978560304303;0,5742514631559504;233,57710078527552;40,146455015482196;9,220351405815217;2,2293004573094968;2,1807540562856285;0,9536312419871964;-1,555871710769673;1,900407664244769;48,6168446624219;6,987406816044475;3,1247428191658146;0,5419522110555871;-2,0736936502429937;0,33914557700185494;-0,6276769565970495;0,06777872685568415;19,875742086118915;1,33413345760903;3,0236431662329513;0,2478890439278994;1,3948401305822835;0,3942082211075017;0,23847120497042207;0,04290685939151976;24,67663985083633;3,552118831910753;1,646307254759391;0,9497951780564015;-4,996575839867878;0,4934031683520167;-0,7855410964006648;0,0942393311134748;24,95107813552557;2,1903713473528965;4,938524810595288;0,2977282802854983;0,8227046419112412;0,29000068633504417;-0,8313151003519937;0,26642662787013216;30,83757155628133;2,218247516826442;-1,089494512596577;1,1244717281027776;-2,8545393615057266;0,5754400509076273;0,8960428470748424;0,8323810328944635;21,869109508514367;6,301641816331893;4,01620777036619;0,15338831583078053;0,5664351632528192;0,4046803790594482;0,5057506042841204;0,08049247344589544;28,29062571163389;2,000342164886205;-2,6739297797764245;0,5651196929513773;-6,519913985202825;0,748814532566906;-0,4882411481147182;0,11159151354917922;49,971145832453246;7,3513850643947345;2,758223278038627;1,0389156963712363;-1,5768069441364623;0,5917510857507984;0,7083791428507364;0,09879182260952436;11,657146334382734;4,202038513341681;10,667502249126017;2,2480307866091724;-4,4739373697431635;2,075511898328102;-5,152016133957099;5,342920006025044;60,91386437174864;9,47116666564899;8,874312536147308;1,50120187443004;2,396213992721106;1,6787330084182388;1,1019325441411767;0,22821409628774755;57,41557543885078;8,723012996335921;6,746219181290864;2,0506345392890264;-11,832547880329326;3,835529617283983;-2,7669244962234862;1,1529056069786008;54,98787360422456;12,213812767312035;16,493851192588963;2,056008611613019;2,326286995686787;2,6695668854086807;-2,3436669427675287;0,4324967511475276;105,163544527674;20,83079466005019;63,23515651879732;2,8244206870668127;54,11654171376608;1,7280373353436702;-1,6323331172890434;0,24205683275918943;57,15803285749439;2,279546438714261;571,3352019939891;22,855316437201438
002;002;Valoxy;Isometric;Isometric;semaxone;VL;60%;5;Fixed_4.0;Not_Applied;S1_D1+S1_D3+S1_D2+S1_D4;-2,5834941618012954;1,2241125596421896;-25,786084753088108;4,896076781849513;-3,050934191531943;0,5202698536331178;127,3100477753311;9,361488455276797;17,329389769889662;1,2912761957121055;7,862000076547686;2,642769530099905;1,6446901187632357;0,2682934655922077;143,1488863429556;16,3375283381007;-10,44549423834898;2,2603061454471636;-41,62255559935328;4,727829695589267;-4,124045677360212;0,3957967838055238;270,4589341182867;15,972520630998279;7,331303537035526;0,7285174179659937;-9,955990576210743;5,190060492158653;0,925624629777779;4,432539361445541;55,710424421460516;19,348410406619013;-2,771394721570853;1,0078183749642606;-22,807959994511087;4,550615636353934;-2,5795619595344457;0,39490817566035086;126,8047860569718;5,586145287897371;17,206608306973777;1,6804439514714193;6,843438244340982;3,315004620208868;1,559105719874496;0,35619534155903737;137,37265981968568;21,99165045487466;-9,614832965911836;3,044396483830145;-37,80015519694543;4,317557298672938;-3,8473463784133273;0,5157178114406881;264,1774458766575;23,027325275656352;6,505016832269485;0,6749281767259077;-8,042623037823411;5,012099238824128;-1,0519674959675585;2,651748983357944;51,366405709073305;16,842977944700113;-8,182639554353084;1,1619622370651397;-19,072578512637385;2,3724849218885624;-2,0529182754458417;0,3704951612685664;146,33060650350714;9,597924272926228;19,011753930759347;1,712056674482971;5,0096441859941;2,6214974531145803;1,7689064510495496;0,34588631621579785;141,6076942264246;22,118650397031974;-13,192283740347184;3,172856148346279;-35,29486824261604;2,415704894753253;-3,306250036422779;0,7623907380770745;287,93830072993177;23,513851733388545;6,111835785511703;1,09991832118841;-4,518757484216394;3,0922837317031884;2,111699350226714;1,1344984321023677;39,46496064121303;15,007860134703005;-8,915595297723943;1,7314135382501687;-23,338851373909936;2,6164431742551284;-2,74430561721245;0,5148723069163257;176,8916421784868;11,135091427644518;26,80234373600417;1,8408754015840796;11,476577130707488;4,090256974260833;2,352219642650833;0,46836626603275205;217,63852923556715;27,94467046366905;-20,39217242843143;5,259028721313725;-48,8845164697389;2,661355828881457;-4,682722414088856;1,0114744664046296;394,5301714140539;31,411273660958674;8,807562215870735;1,400283795369883;0,4516994861817004;3,4133976101796306;1,2660015583051836;2,643363631047798;53,576467952863666;13,55125336449557;6,607556193791842;2,276153575035003;-1,7865125009713352;1,5184573362531888;-0,9790522309098313;0,21155520829874241;33,98080720517928;14,560052973182785;6,014395048298209;0,9960230725053286;1,5187904808294554;0,5071621646139542;0,5093204056759946;0,07509728477345452;43,327507138002446;8,13848953817093;5,080535520439382;2,5676938482075853;-7,449361688061737;2,3357006286318365;-1,4728072222622077;0,2842565210276603;44,21529462771277;10,45647238472636;8,640553103224107;1,9355450766326208;3,6762760426115606;1,183733498380037;-0,6931350067053822;0,09328232702666626;68,2588798535451;17,31953938535746;-2,6923774373758604;1,2565027323537665;-8,341983075088049;2,383810847806488;0,07566063395148977;1,158125054440379;54,693172266996555;14,251398553864552;7,90788284193294;1,2607100826334008;0,7635888649657325;0,5531649230499543;0,8698084932179901;0,08230918396366488;50,35824318968394;10,923278521105184;-3,664883808383577;1,516951915096398;-14,938729350516155;2,850675670029322;-1,5357753922557975;0,46140103613417566;105,0514154566805;19,515264855752882;3,3602769351540482;1,15379240353941;-3,1435366962821156;1,836994484346866;1,3265910727026269;0,5329983814702637;24,677185705511828;4,5591418896945;14,358448882997425;3,1261345020694886;-35,441652074925415;23,83145661131207;-6,422854366325547;3,0039887569660744;147,0079499207949;67,38214467198844;23,57934297546669;8,527499444032742;4,352853056539632;1,1502449903777214;2,375032758813293;0,9610386604802167;124,322545339922;33,49204984728067;9,962579266615744;2,2263045851787124;-58,78351316862616;32,24218968507889;-8,573756882304938;4,109401798259652;179,84711104916323;84,33190144048272;20,80014349180638;5,222939557068642;-12,24413656528144;15,584452296044908;-20,5237250404656;13,332522935277257;160,08982277315172;35,35425587438182;62,239723152857;5,107882360916414;46,90683275475254;1,5122196640799515;-2,345142737721182;0,7824153970313444;52,209479771025954;2,843045253028613;521,5343480373638;28,360739723914765
003;001;Valoxy;Isometric;Isometric;semaxone;VL;20%;5;Fixed_4.0;Not_Applied;S1_D1+S1_D3+S1_D2+S1_D4;0,8632490501316059;0,9104664236182837;-4,294118969433758;0,5309310359730975;1,9166405406701468;1,2829509281701164;25,612566305357422;3,0202834182564335;7,948501757418671;0,15222025366676117;1,5206716298726852;0,37643265076446275;-2,0300986044733333;0,25165303352311086;56,23636600805727;1,0922170955521444;-1,8765601413849111;0,9743335988008053;-11,85428392330207;0,5787227320454025;2,487538561204722;0,7051451405877104;80,37766168752648;2,659793427546456;5,459652413646067;0,4251189324102137;0,4924020788747258;0,7263059268754345;-3,65741365983954;0,9781068389900938;32,153642166223555;3,22929234755005;0,24207152723450093;1,0723699227775263;-58,77692865810231;4,138354703634879;19,538893081965547;14,476759342674981;366,9358924285351;46,975416516442735;13,39301972963724;0,9116478271563792;-0,17497806952905015;0,3671969269449235;-8,417259725471657;3,7655928532953515;80,01312987521462;12,173970208528484;0,3240224479919231;0,8404381488411712;-71,95009437052337;4,681562055792408;24,242802799156088;17,918065584297164;446,54911014289735;58,32488864971471;0,3322372011197776;1,2564230161405383;-45,60376294568122;3,610509565642888;9,51197368465602;1,7256277411181913;287,87045665409846;35,93228470158406;-0,02766964795273803;1,2253956256279521;-73,28611623853412;4,684965621430416;39,333517896893895;19,857656642926905;502,4027492619354;53,759039447910375;2,6119485668662947;0,5521264437446699;-6,8548765709175115;3,16286403456337;4,058843731162545;3,241479050801553;31,747897746074266;13,431976338115353;-1,9224465214270345;1,3888886322312957;-67,54555232103903;1,34009476134176;36,370638455521764;19,766677733149628;483,01995640378345;37,35228755561864;1,9297008362520174;1,22234858777746;-79,45727958915471;8,589978042034806;41,87298459294175;19,63320481426918;524,7778383551301;70,35241849468261;0,8616018941061624;1,1024522998943407;-64,57928754437243;2,5901801212988143;34,26793103037134;14,834505481196675;459,5932970845218;32,43372795617003;5,797961449016426;0,8259613705509855;0,5175517241854987;0,6776488653753228;-0,5890907072945316;2,5697918102515747;31,41147658631167;10,794925009833866;-0,02420887215187657;1,3671722749360031;-66,67857372088345;1,240058174555492;36,99016719371325;17,794960256198458;490,43182512559105;25,105021917572728;1,8210340826644842;0,8852701379793304;-62,56239462434994;4,169477577462149;34,490662495671174;14,671997419421235;430,23844362523675;40,30415209372607;-1,1344042608333658;0,6453148558692247;-4,168931397746448;0,45389707612195584;0,6838200331698647;0,6490642369817003;28,18175078878874;4,980104009496792;3,1040899591435314;0,3322597261383897;0,9526264647840736;0,34222444476980796;-0,36309932401015976;0,20525342755729933;24,40658053376749;2,4482470911848817;-2,089331035019005;0,921588476979748;-7,043090171254782;0,5194186105538277;0,6051824050718794;0,058256744846279546;52,58833132255622;7,169842954541806;0,5003145351557847;0,3319624602455513;-1,5371758410941454;0,5208358839397588;0,658347321047869;0,6727249727867172;5,66020863494842;2,090384432063786;-1,4308241524534502;1,0809602864381638;-14,942889949881248;3,09624841459618;2,6949999934460585;1,21870995015349;95,32696651542244;22,84818062165659;1,8414541674873592;0,415865901179743;-0,9156014015218898;0,8740094008567431;1,3340290486080746;0,8767457641953366;9,142497206109034;2,0301271146466378;-2,602355667654557;1,3067662381465832;-14,055433131353102;2,4208921341455123;2,293153876817283;1,0312871578203557;98,89044298590194;18,647127586202334;-0,2591725874059138;0,9776700827881587;-15,84006096611734;3,8549870986088424;3,1124526257825167;1,4433530255936935;92,10242615286101;27,423099637447105;-0,532499239891137;1,8637716256875014;-61,711300999505944;0,812825982217397;28,62343726438433;18,079105779880955;461,6127269667656;30,067965799950876;11,61985253049048;1,2930746524985046;-0,7400526129326102;0,15936947478757965;-12,636702923632669;1,449974145610943;51,133245977707304;11,029465142818555;0,17083970360509887;1,8146446877376061;-70,3714610101983;0,8657402158677276;58,43277172469865;11,129851650314809;512,3240852453263;28,946362648779015;-1,03037567197632;1,8567700386174886;-57,22593614858213;2,117983668755851;10,358187887401451;3,256965939088998;410,97085835667224;34,781350000630574;81,29102772146746;0,44866395013152566;40,22784821555406;2,5294808226088707;16,355480844893552;9,654405425061244;55,917687194147746;3,2161627084076465;557,9984007005211;32,263844470747884
003;001;Valoxy;Isometric;Isometric;semaxone;VL;40%;5;Fixed_4.0;Not_Applied;S1_D1+S1_D3+S1_D2+S1_D4;-3,4427161513381987;2,4605432521038026;-16,0127460312438;1,648812135837974;3,476125966690225;0,44669281234144415;106,0250933284257;14,47122566138146;15,208504475279408;0,7581941960437872;6,0299183301176855;1,3750373385177448;-3,8813771638529273;1,3308987146050857;109,1693893428275;7,72600506266945;-9,509169472468539;3,7880661274864185;-30,78927096402984;2,2451004324817077;6,3360418218586485;0,6121185282002444;215,09500805867123;19,9066633633603;3,2264126254462346;1,0052853224984568;-2,112506699085501;1,8337038227932634;0,9364656686800659;0,7606902942092677;15,629296654937482;6,281897738916348;9,867500598174736;24,02996952711024;-86,09535914021235;22,163004098450582;40,44898090904844;26,172449337123833;628,5554602584702;107,38023714168563;17,735470897461305;4,436591066458142;1,2602731465003045;3,73628315183842;-7,540319331935659;3,8609264137921926;115,95182225057181;39,36005653579216;8,54800760117083;27,7639424424257;-102,14905240368519;26,503612759779415;72,3224782164701;32,538997136125836;744,4016687419864;140,89328356767416;11,321643737767504;20,45893059793324;-72,01756829829053;16,34402509337912;36,96913873157596;23,130852985297526;513,6269824893495;80,18463810052143;7,733193125141146;23,374781969317578;-82,09954133926472;22,794550296770165;22,10281911785461;6,505446204570245;617,0923442831021;124,87431520203009;11,97788140440701;4,715739627283069;-13,913164112970776;4,216851858455144;10,54343106749617;7,680037138057414;107,39302383361516;19,356550738087748;-1,018526998839692;19,357435681002368;-70,35844063794927;20,9452531660007;26,592141321596852;23,42621800202843;542,1600583882508;135,10900905008887;18,346413718340102;26,939850810067863;-95,58999633381323;25,727749380766497;50,16583805166;24,746646355596347;698,5840852313835;119,86186011021711;7,2677286781147945;19,61708527129428;-67,45486565723317;18,74135351640646;34,533363460088175;21,48170321116824;501,0385132046264;99,88206375408825;9,268503888372296;1,0008133937355619;-3,342910712092279;5,924143232380953;4,47122255970363;6,038551201716923;55,5255235748138;12,305497324334729;2,5079945878610617;19,423301948962763;-68,79099022243743;19,592512266813436;23,29723575514895;2,080242099723945;514,0674810125682;124,05624105161823;13,806692335181722;19,34966778919292;-68,90512785461151;18,765400854833636;52,157241011947725;22,174914210634626;493,2410844610454;95,35526102990697;-2,5617260125039207;1,634471771832353;-5,709310885251986;0,879553036488096;0,8466237374368021;0,28552413390819886;44,96692517901239;10,224402047966464;6,305943489914021;0,8838045809337514;1,869762659865667;1,1729270118788524;-1,140483802998228;0,1626244531816925;48,659620868448464;8,741584084261374;-4,434197252675768;2,7992697049019135;-11,98470287346364;1,7934967423447339;1,9755338011971748;0,4157218039733802;93,62458983480778;18,823471729190896;1,0715630953236963;0,28799476460377216;-0,940753290728602;0,3518653414564833;-0,37754643719320347;0,08196239869051375;7,3475949805373855;1,8430187869570596;0,29631068863465454;6,427611392667137;-28,130998690436854;6,735621326384875;5,47924477018698;1,768168458129515;185,68752324137444;39,474376131775095;4,839491151343263;2,0023196519467454;-5,8785185946645555;3,673313426885332;4,722420605996658;3,9672451600394285;38,46278258869964;19,675496070841323;-2,7141293781539395;5,917482368973708;-22,45360604796927;4,617622217036524;4,126758037439053;1,2073924463240087;162,40016103937748;40,480150870898;3,3637125013176727;7,258110800271041;-33,927586088595106;9,883901246800422;8,32288930484853;2,356104229477644;209,4311605784782;47,86884146684658;8,282099240480544;18,064781941711487;-62,57748904027578;17,684294649724357;60,698126024330506;19,88845925836101;458,93185141636957;93,75697769301593;8,430956806097802;2,5966854592833677;-14,737016574137579;10,36038879842808;11,388089999755456;12,072658536239013;84,66833713947948;50,10964127771952;6,226075917076402;16,574844748726225;-61,83657241342557;16,50448446973713;61,536580825095506;20,15903646930654;402,1367003729203;121,07372680612477;10,61040629266664;19,6370146531954;-72,75834508740188;19,88712677564249;43,63380138474495;18,544523083214557;516,4610997634034;110,58376179096337;79,72096790941569;0,9101492729706995;22,444549749931337;1,9014373351714196;19,206784574669054;1,7092788991416377;41,338876046535155;2,050580827496434;412,1210390208597;20,492101061480497
003;001;Valoxy;Isometric;Isometric;semaxone;VL;60%;5;Fixed_4.0;Not_Applied;S1_D1+S1_D3+S1_D2+S1_D4;-11,12440419708349;1,943883049303636;-28,107378003686836;1,6179760668450156;3,3097098037254327;2,549711508506743;211,06136710548162;15,887612740122034;22,43585284339883;0,660071005217775;11,692360973431388;1,6686401941988593;-1,9214160609015078;1,9169861193161506;175,15589536526272;9,262528032689236;-22,818995574822466;1,5682469398229066;-49,52553511182722;2,097024580657335;4,838006604983912;4,2250435784179095;386,21726247074434;24,721484197541074;3,31396279093777;1,011712220129816;-7,842374868075351;0,8008286748432735;2,9500853755394076;0,909425667383817;49,85525542429235;5,278906885357465;-6,350114528241516;1,0243855528066599;-96,12127824036693;2,613304247553556;86,5005780398799;4,2785548453031135;673,5374934289299;48,85608493438963;16,024041591644757;1,6654863414656906;2,846332245249509;2,772218020005832;2,534257871578822;0,7642477295887037;69,1658224502272;20,122709147804343;-15,17575040080223;1,7795718534294542;-107,41975745627583;3,8578870192558172;55,00241300893531;35,394517406978125;742,6749338596042;50,12902328094741;3,1606831510237985;0,42646569344694363;-89,98026692788204;3,455359345214273;31,57088042090711;27,856476783656035;609,138251288297;53,052359785830305;-10,043079240207623;1,337713064601223;-100,23724226804514;2,2118535622746895;33,18634957389408;16,173928977019916;730,8522006779192;30,517813627679285;16,43304841484152;0,968855981901865;-29,86317568809779;0,8444955593698538;9,694671205297215;3,200889764428725;228,3431263065949;16,313561251464492;-23,028130675308986;3,0793248824143133;-77,33239489544545;2,779224207822491;22,1365989870339;11,397522515898457;581,6681228857985;19,051479157860115;5,389508538802184;0,7779683710235459;-128,04098881131796;0,9972117865892824;46,12697215721836;33,53036722443144;891,7688477428667;44,66653895141856;-8,190347995639375;1,7247558218733057;-80,0008152894256;1,7502103483933125;21,762329976937874;19,046960231490146;589,2079178023856;40,44955716676362;13,974748140124223;1,0182212228935534;-16,239448890031447;1,6152995371626861;4,472508295121999;0,4280652551680972;129,63617135998913;13,334559592674129;-18,462392199586183;3,590317786379592;-72,04820502328877;2,475848409643853;22,54284291550686;12,97768215699782;527,5676903843719;34,03477810683071;3,6904256428165296;0,8570619670791709;-96,13185292775638;2,139551413852239;18,975516935831237;6,747579854829144;659,2191194753357;48,137482227813045;-3,3474288515561605;1,7442102776422792;-5,605579028667915;1,9019105346510432;0,34869443798079347;0,4342763618801864;43,92026181045598;17,805571846053066;9,246964522896112;0,7072732941699182;4,361807413199717;0,8073191478404214;-1,3122935337418746;0,09474768643633166;74,11517441208113;5,514100055407475;-8,094891821281914;2,600900140285277;-14,626658837983053;2,700039424981369;1,0769690278630029;1,0944956775613477;118,03543622253713;23,274027531724094;4,506872482674493;1,3599793639010584;0,29051146008323825;1,310884847024636;-1,1393282884985978;0,3834885300462806;31,062348921536774;11,377974636755047;-3,4741901729396587;2,243927725317769;-52,25389236482617;4,29516683875035;22,056546823191574;13,434520198473072;372,4945022886082;43,82694019638891;18,691892069894813;2,7562907955158864;-23,143553421423977;1,0385698847815932;9,62516456421151;3,543277626028805;162,85645957565595;13,77592473552903;-8,3896406515967;3,731465036923906;-65,50695059364787;9,493752653141003;41,02971395758199;16,420445436261552;260,21667977989455;41,19657302055725;1,5312065192483613;1,1125729619065083;-72,97033421921725;3,7426025043216375;13,475339736284202;3,640976361243859;489,31417631752566;46,52301839854203;1,259532104790169;1,215712032239604;-68,54200195700834;1,251008692115288;67,24549987285802;2,9697826636339304;479,4007554254912;28,93235315318291;7,774803745097796;1,5893511143603087;-36,6054203012121;2,596852830287684;7,880696131352737;2,6940083160232584;239,3891059351845;28,773833988776342;-1,0242172534380471;1,6087037790469993;-56,349773951828084;2,188669997840408;66,062265429698;4,695523609299247;258,5707263161673;13,340757499788236;4,072323204362189;0,7148324645494724;-103,88690169617857;3,617036276340125;15,437172873973187;0,9860348992331222;705,732704800461;54,375770474159516;75,99765656078924;1,4310194063115607;32,76308663705305;2,016536901247326;78,97432977534866;12,459071050361304;49,65012256300656;1,0018489631673633;495,7832594325687;10,055591009742756
003;002;Valoxy;Isometric;Isometric;semaxone;VM;20%;5;Fixed_4.0;Not_Applied;S1_D1+S1_D3+S1_D2+S1_D4;0,2846828567711011;2,5600021617117754;-13,13944359766636;3,184514715894879;2,703049888146135;0,9468220861250878;89,39941650465566;23,72533552109628;1,2978647817267037;0,3876518506745055;-0,4857756332636458;0,3066961202510234;0,13339191028787328;0,204204671592344;4,925692338965642;1,2676808387891187;-0,2692654987908799;2,4801111577526482;-13,60940773234914;2,961044689018824;3,0376138863545714;1,054203353909222;91,01065928170411;22,552578036099078;0,9437813563528067;2,7403608868282654;-12,768895080943496;3,2926020854341402;2,830204807819659;0,9885648232577845;88,26336593146664;24,54441302202123;0,12527756842350973;1,5135987123580101;-5,662919402676904;2,296751159709599;1,1829659824397694;1,1046337582631778;34,601816198013886;15,9450714518196;2,7342070845644435;0,58477900896057;0,7443829333151132;0,2638254777465029;-0,36855907260993587;0,39075485630014367;18,031941772578094;3,3364254482380225;-0,8801587326230523;1,4044679162389593;-8,132537617283118;2,9570143573234935;2,6073516543978643;3,178783170950989;52,13003352114813;19,28867415188098;1,290327463449686;1,605670228704596;-3,502824957610238;1,6148978379656522;-3,4945234755644976;3,480652375028085;18,872650555346944;11,87191036060557;-0,7535495246683538;1,0107660046752518;-5,117222847527531;1,2546976644913341;-0,6704493457451213;0,11061608674106346;20,72322134464751;10,298672502596302;3,6274943850064725;0,3645947204091452;1,5194343314752288;0,406703006308715;-1,8624241917835147;1,103484327635363;24,791031228080776;3,114409347674919;-2,7322185709517504;1,106702812404568;-7,098691330988521;1,4165241097189225;-0,28015733964232786;0,660345952370607;45,22336300879818;10,552080920142432;1,820356270577238;1,293781810807395;-3,3538683751043656;1,2602483957663184;-2,396536299389676;1,6804749434889574;15,138573205379723;3,9746950472838454;-0,555962247478862;1,3317350963085777;-3,5926759836092805;1,3220019762407424;-0,9235358189344047;1,5391298672706268;15,828321064324921;11,954846448495315;2,0538086707125345;0,36153451073558346;-0,015437937569540839;0,2193507132013432;0,2680695284475244;0,0376033298137258;10,045919139160114;2,8720160518752595;-0,776549206035905;1,1021760981966944;-5,103002034773;1,2024191576839505;-0,631303806693789;0,12046154317019522;24,534983646105793;9,592505283076052;0,9174144823579997;1,7511425269229726;-2,099091492489594;1,5010857043618426;-1,557614729438894;2,5808598005499452;13,504151541983333;11,655346344778563;-0,2748195854606189;1,5197149017913338;-3,0385704539219143;1,4556111066136408;0,45074794021961495;0,20790101978177916;22,806938568419078;14,11369968776316;0,3166510813409954;0,20578003453470406;-0,7972531794312245;0,07415028297668437;0,12403538249616637;0,021416725002644684;5,072521218420951;0,7861340761867532;-0,513655512207815;1,433046833757713;-2,4906867239557635;1,3529509438459562;0,4937928004763206;0,17433175683768712;18,48791803660619;13,256215432051803;-0,007688482999456636;1,6489839508109936;-3,763634774908455;1,5134939959314408;0,4217636066688765;0,07845657838288828;27,32397801471622;14,890418975750912;1,2918854897178964;0,8037814882387312;-3,309611794193492;1,0372636550544467;-2,016670702175337;1,379881810467241;12,01706397615242;2,5921761561457037;1,495845410178295;0,5528703156142825;0,14683855125207212;0,2459631213670289;1,0916768254561764;0,46507331640562655;5,527237982588788;2,348432699164447;0,9452027296021711;0,9933733919592029;-4,6700849332205525;1,5278246393357613;-2,42501157704056;1,6846464452369854;15,424897537430201;3,174046898176708;1,6551593677665566;0,647394257106305;-2,068104190337606;0,6909523110493263;-1,726868457301586;1,231421599388472;10,1898068480278;3,5691663880277704;0,522604290932901;4,156171649217961;-25,910800778435476;7,270434543279019;5,373764116409861;2,0015677924462203;170,41652146442883;54,77617364355325;12,041068239633756;2,3642518259332075;-0,613511192612242;1,3499501784348447;-2,6576469237788487;0,704101647710558;79,52551755592141;17,03729269956058;0,8831294515504489;5,430354010738214;-37,76551461609441;9,536054791598776;7,144162179398085;2,863813086480937;249,6849369326877;71,51860897191891;0,22087531339683447;2,9662132330418087;-14,243045237800334;5,024117840913737;2,5150112760423537;1,100971742005066;91,56200800762241;38,24620069392995;75,48812178699414;0,7596015584671139;72,72779586315238;0,8397256800730954;-1,7594835358946308;6,548427767804688;74,08655974123569;0,7427357446432132;740,7957096743542;7,426072921235413
003;002;Valoxy;Isometric;Isometric;semaxone;VM;40%;5;Fixed_4.0;Not_Applied;S1_D1+S1_D3+S1_D2+S1_D4;-0,0020379404743123162;2,0861704217286574;-44,980835776398116;2,1575827348673733;12,288082545876003;0,9332916215953698;295,97749433875754;36,07552674546261;3,3961680984827156;0,6316477311950817;0,5463754397727585;0,4071345002642689;0,208691932814481;0,48776164040552267;16,216216552104136;1,7095891694073972;-1,6814218515407546;2,5559402882665125;-46,58620542107319;1,754998843641504;12,261238758018397;0,8397028121956565;310,9324037753862;38,874907822570975;1,6783092477580375;1,6726611582553497;-43,44286758081;2,555730544302735;11,356209587211875;1,9893556115934614;283,81599617323144;33,423785408251824;-0,2698511304764063;0,9561053938054697;-25,962034157936557;2,9091899718501586;6,827936520355872;0,7981325636331607;163,92323386846675;24,211800272261023;9,20013416395339;1,1353037500886287;2,448952285836266;0,47899581661777557;-1,8035988065172717;0,2809519141899063;61,734038832918245;8,779930766810903;-2,7561803256638497;1,18897490035576;-35,06402645636552;4,0153688760377255;8,605538400276455;1,1096496600125685;225,20011159162937;32,91473841550483;2,236430270370959;0,8809600664520884;-17,025681440690526;1,860884150282235;4,503261628674968;0,813599641328692;110,60204571478918;14,353554399218245;-3,6236289589772452;0,974609890392097;-11,35712106204323;1,013210675725928;0,44014558346284377;1,788781695754776;74,6151636237726;10,325428014353365;11,481492214349556;0,9320289387586789;4,268464486457881;0,7947234625096028;-0,04440368255190865;1,394144040684509;75,46391281528062;6,79494599963785;-8,140266253973053;1,4086422341622837;-22,1442524817214;1,519472970268554;0,07978725826189885;2,704055481327959;150,0790764390532;14,354758361832964;1,452000221664104;1,269816931281712;-3,655524328017914;0,8228525379607529;-1,8641325678483796;2,5334475615583103;13,640062269283254;3,5837512342565065;-4,043559814991577;1,6190929464701675;-12,349495621318155;0,7623576823721087;2,2302582739157657;0,3152179980194852;82,59197229844979;7,871675340178403;7,131920222513716;0,822841092562027;1,2991504256126212;0,7909776187225507;0,4424557755355406;0,791978871693781;41,75507305496074;5,823118982460095;-6,673437185422834;1,3422047747372845;-18,467985572963364;1,6312286292067915;1,2566765374661066;2,3610505339977;124,34704535341052;9,348571410015763;0,16006906694707856;1,040360794608251;-6,6308878307641566;0,6329355861950313;2,5890430587684827;2,58647415645203;41,98205926936924;9,625877884091501;-1,3097806776531975;0,8765621265651243;-9,075514059483787;0,8997052413838456;2,1783781882034527;0,20632736416267372;59,700975518104954;8,95137127649879;2,1408972754019793;1,0021563878664692;-1,2518098652788212;0,2668777498690369;0,5023969502161558;0,1463021794629464;11,013286801076708;1,930518323428827;-2,2134838272363706;1,1671905672886242;-9,642053320352055;1,8086195958048157;2,0725849045545046;0,447785046801104;60,89342942764951;11,15163442698881;-0,3447415735186278;0,6822742465990504;-8,955554207747019;0,2970221292076896;2,027100275764888;1,301151026054867;58,60524076182064;9,151460472724175;1,5712033952592748;0,7958095474337465;-5,527677202478133;0,7740893102930388;-1,0442072168766634;0,17996208762732513;18,754330910003272;2,4635755797761214;3,753773625021991;0,6798219278704569;1,0924124340668162;0,4064712245023817;0,34599227809525257;0,08558604243583143;23,02476933966053;4,374677202535707;0,3899632596339645;1,0777256121799135;-9,167644194811029;1,4152066382912019;-1,3914726085630045;0,27021186620044607;32,87073666986436;8,870060379278529;2,9006079123571715;0,5612983153169882;-1,9690529976938975;0,40786069825684923;-2,04956747906897;1,4305853914564597;19,400722047750715;3,5800223253511305;-1,232010541043589;2,1714529614745377;-119,25070841074243;5,425967073039112;32,208599167585355;1,8990996606339527;771,8380268770708;87,18608126275804;39,143118031818545;1,3886236073083533;2,532806046969813;1,2521956124675915;-9,964686555351628;1,1728763342369586;257,63263394051694;30,293668401412123;-3,869006838209954;2,72249677157482;-158,2260456417925;6,5463002413473275;42,0663825408359;3,4072201440383387;1028,8485548838028;118,30893419653701;1,4649683239747087;2,0922920492717534;-80,39634959810208;4,299190614404367;22,521430865444994;1,0427828161290849;518,3660790831077;55,44933984508657;71,94402322413147;1,2120909488761196;60,08866406708379;2,715916224319496;3,3180844873096857;0,5228858254166356;65,34737430257104;2,2522996352140443;653,1444939809564;22,59574583888361
003;002;Valoxy;Isometric;Isometric;semaxone;VM;60%;5;Fixed_4.0;Not_Applied;S1_D1+S1_D3+S1_D2+S1_D4;-3,407829529450923;3,729605096665248;-51,733505737274584;2,5550416659399553;13,376668033455605;1,173530641209162;362,49315432901346;43,8060749029752;6,123750414393408;1,8287005134166552;-4,882729967139921;1,7440032017064258;1,6063352793837051;0,3093217615203813;42,11764039815729;13,466962336875495;-8,276546617348245;5,6895593736498355;-48,4569936744862;1,526296215367231;10,689276857596349;0,4401651689148016;355,0264470470245;41,54646082085682;1,6234534485388252;2,015999951075187;-55,415767063582294;3,649090767896976;15,769826180717796;1,9451115894199953;371,83767903905573;44,83679930901805;-2,6323768882366663;3,3952707826582813;-36,14242651652973;4,553574358645224;9,136328463079598;1,2279153308625905;246,9711413160564;45,35853774392759;13,018652980574426;2,240670583936131;5,101619757321277;2,2264346666389687;-1,6638706897029985;1,3711178710932583;89,37679122047685;19,22554332704974;-7,831682880432145;5,622396266116052;-47,783206719476496;6,137963315480299;10,002096589566428;0,8188397453092681;334,37032866102817;68,22386567916354;2,931207165308782;1,2471407964284063;-24,545691078012226;3,0233116082400557;7,25543370952372;1,3573281130512909;165,73657224095984;23,924772998804343;-7,860163713567121;1,3363926465555904;-19,65478306379341;2,2117600275973066;-1,9771149175750495;0,33002814762725563;141,51349822165852;14,790516390927692;20,77859873893929;3,8453276821789726;8,078463763784484;1,2255876616008523;1,018935788431211;2,035481147214032;140,7753951640625;28,212020538599916;-16,05034983692434;2,4266850494810117;-40,39959345414709;5,5407879136254605;-4,0110442974094545;0,47495165713322574;282,28889338572105;39,959603478343425;2,449423849758401;2,3045218719264997;-3,254220642247263;2,3421115739011764;-1,0152077948898013;2,606125891524678;20,314183814256562;8,082204201059087;-7,765988782992122;1,205905688008948;-26,958844487630934;3,0839504081351357;4,994646169286265;1,0285430985305304;181,31263014435828;23,203115480897623;13,838871185273835;3,3464664800946626;4,724624870500131;1,578037018275114;0,7532681911825165;1,4411233183319105;95,14215953536498;25,472719774986434;-14,268702551331563;2,1056617882183413;-40,675411703108324;6,207066616933114;6,747377326310344;1,5663856619481604;276,45478967972326;46,39677588587142;-0,633603671109516;2,542004228477056;-13,68168281640158;1,3924932594219301;2,929898348277537;0,9126854493210141;89,94390565871436;10,695494544335723;-3,5014761855248735;1,190431584219753;-18,335090067168313;3,5341940074195577;4,252432789669693;0,8941207217558584;119,78810221982837;25,40588806217407;5,656744838058614;2,3306257913165767;-1,195775633255735;0,4391480319940183;0,984975385702587;0,3307011744553696;29,69090049147372;11,57112678894196;-6,396363495021958;2,44866164664991;-22,80279955301304;5,853044850408127;4,573278932679319;1,0976029788082171;144,9124737518234;39,47202969423817;-0,3069243569035306;1,1033434142872263;-14,526829738233655;1,5623102401123607;2,918887287612957;1,2678362125511105;95,61791348509789;13,579157359905238;3,361547165573815;0,5600819330942626;-7,527537071027318;1,0808027723002975;-1,6571784785119206;0,25633414990471937;30,454993352126177;3,6070050170380537;6,182322191149205;1,2366671249465029;1,1637562669762835;0,2506240541754746;0,7718581863624989;0,19184373236171892;41,363550001637485;9,035462182604933;2,1343588460214495;0,7755222562039493;-13,538663924521137;2,070741131301396;-2,1743564300934537;0,2665304083646025;57,106624302405955;12,591245249763674;5,676579805323835;1,2248536152186693;-1,5308146855881195;1,0195009424383723;-3,6222623476256857;2,1654217323827814;35,50875775929292;8,261162764819685;-8,605465174054752;8,742186705832001;-141,32298029041414;5,831468203218513;35,35694460666845;3,7029933296285376;987,227935957935;110,10941622527926;44,22035569296166;3,5679959871628215;9,687897331177396;6,42522026898072;-9,854425106946975;0,7058899578653761;291,55963957800634;38,23359261300322;-18,397987356075607;14,863767949638499;-181,79279981105537;7,512492533369811;42,96810711257232;2,0478165838612767;1277,8453876312392;149,54134811614236;1,819346575156003;3,3977163108050763;-102,33909305889368;4,728654122082725;22,060365212179413;8,76931906362013;698,3052734762832;71,58890924675636;68,0241517019855;3,0376157756016435;48,72913534188387;4,5930148239485895;5,1530408213973;0,841405621105178;56,670115968225424;4,527219344432065;566,1296467529498;45,39831906100917
004;001;Valoxy;Isometric;Isometric;semaxone;VM;20%;5;Fixed_4.0;Not_Applied;S1_D1+S1_D3+S1_D2+S1_D4;-0,11165327713874766;0,3930306250014191;-2,4137196618339125;0,658360683745537;-0,9290981955198262;0,5795818437027326;13,64306054865861;3,255891583471992;1,1281617055230346;0,19901643392519655;-0,8443698924533798;0,32619571207671805;0,21663441362152475;0,03842609379829521;5,702699764811397;0,9952371158703932;0,18672563239263873;0,5100974085966322;-3,311982014593936;0,8046733989343929;-0,5241739194950534;0,19644560170642356;14,769050967880421;4,166575291519113;0,12891178220897764;0,17178029298748732;-2,4631752389680086;0,714082899394988;-0,0046389602626144225;0,5554341457403917;13,060709693256793;3,0387133816548864;-0,23076426643049616;0,566955178954747;-2,552809285699708;0,6368588075498237;-0,7071185932217022;0,33488021003867396;12,386230876374153;3,755322449592946;1,3012615697317655;0,5057953042656644;-0,23518177583845645;0,2697117345909479;0,20899811106716015;0,028342816280777096;6,831413983683618;2,677922147604006;-0,3481695151923736;0,688468647479094;-3,6523346760324515;1,0604975576309636;-0,44734661827372646;0,1149858196276112;18,217162521543074;7,080105080859835;0,2824904941677478;0,33411520565538017;-1,5015284819024175;0,5208863473810265;-0,2806983316469604;0,6698728771353145;7,127935064812189;2,610717342088707;0,3690517176222741;0,8003085381709607;-1,9181201158875936;0,5843038451808211;-0,6891262014286452;0,3443116848284373;9,532027676128017;3,6757753955358674;1,2965379311009357;0,2702205122823497;0,3340814276274333;0,33902874442199255;-0,06100641690134299;0,4621818392510581;8,131417681988356;2,830444624696361;-0,3730123855565263;0,6902089446687318;-2,6506394173817305;0,8626505542564128;-0,3483773580692123;0,159785634247314;15,000829885265613;6,07540575183512;1,3455643549956628;0,7484513690414059;-1,226221177852977;0,4996767311090964;-1,0262854444224332;0,6740801544482101;8,74624231000924;3,4397151967305386;-1,3786628224921074;0,43806765432647354;-4,6014264757958525;0,5105755151688445;0,7887244777717282;0,25091222174070477;31,028591525393757;5,134383112262154;1,6811123529827146;0,38610875063579514;-1,6010633658253721;0,3462243444848928;0,38478010597329204;0,04289490437921863;11,263536400765114;1,4457514354268528;-1,6763438287710044;0,872957520310178;-4,077967984808406;0,9682858226344656;-0,363697592589144;0,1541671190633745;28,94612983163707;7,897344459956084;0,27765121267102044;0,2694887131297768;-5,636956165198421;0,697261822754706;1,1216096232817725;0,43189877043494207;33,626067695999346;3,5659578153023275;-0,7993894150921845;0,3322126273073858;-4,247020944305473;1,4502749840146887;-0,08283139765953093;0,797887768420897;23,703444937973536;5,651121463963477;1,020151688369612;0,34060143250510627;0,2531166354850962;0,08966607567458568;0,06969281710356143;0,19356081322878285;5,855555030137763;1,391335395785007;-1,246621354983764;0,3112216855760467;-5,191491339898078;1,7834375002555212;-0,0743142124535278;0,842868350092901;29,5589999681113;6,947114324590976;-0,350293319252971;0,3766856663131759;-3,3282091784378105;1,1190262015866967;-0,029949596551892065;0,6570339052616094;17,862070103126904;4,392567008362269;4,264026105610045;0,5311197819488057;-1,0798739993568656;0,5726089433444773;-1,9089267123207982;1,6348788389957611;28,817200553722493;2,7169669452919862;1,6299452940023744;0,24233567011325569;0,024223426228689594;0,1962066855447718;-1,4645334397831538;0,11941336546421726;10,618222410557033;2,001176553548817;2,857423436673097;0,5064220533265954;-1,1387724564190964;0,6680620332480238;-1,3219948762006284;1,2200190677708078;19,188445376218837;2,6723926371262348;5,738420106762933;0,5417003707780492;-1,0439722161860083;0,5619205716563642;-3,1919799862728837;2,5132818760471385;38,64670167153143;3,5872006310280047;3,894978765031932;0,46490436965546666;-0,664385080623471;0,7083209792660076;-1,3159205236203815;0,8144755838885338;23,70484337059887;2,7334814161008523;0,4322827650177419;0,12115640814167299;-1,2526692931016488;0,2121018226380147;0,5812888764820856;0,4516123667896378;7,724432059260133;1,1061017907283415;4,94016358850657;0,349609552673608;-0,9539225425566824;0,8279083594379159;-1,7222632845060524;1,4114071246779099;31,083063689770807;2,5888509772882022;3,0325696364614765;0,41979321078131043;-0,404585440440255;0,5838778662546671;-0,8724522455911956;0,46060336417897896;16,50136586766741;3,176321871761451;73,84099024729906;0,2323308563922674;71,54290316090892;0,22885442353581892;-0,3257589397189896;0,044661800274997304;72,80881325467726;0,24171218420565163;728,0896075028891;2,4235252276290136
004;001;Valoxy;Isometric;Isometric;semaxone;VM;40%;5;Fixed_4.0;Not_Applied;S1_D1+S1_D3+S1_D2+S1_D4;0,6883573132605195;0,7915106349739249;-2,7346130729828935;0,453300263469198;-1,5667501410516345;1,3118443207527617;11,039765955268035;1,86217600136752;1,721402389208108;0,7081147187611315;-1,341637300219643;0,34649647513241555;0,34170299456768105;0,05599239429182489;10,697839047930053;1,1453027396953297;1,314065413508651;0,8710535792847717;-4,055074705643429;1,0983727196316582;-1,8964689140408246;1,352111154773452;19,02046790731146;2,5911359786070327;1,0606859003160047;0,5481727625038479;-1,8554237075140017;0,5731063128240239;-0,5028452583433201;1,8382791880723581;8,801839853114833;2,918870933099578;0,9608984238862842;0,9433167973673556;-3,26793180048031;0,9283596731560344;-1,5999828786614956;0,8039614679256063;14,961599490906167;2,0809816959853404;2,3897080364558443;0,8565145803633584;-0,7152539735338654;0,3690068315311189;0,3867260185265188;0,059452309095601084;12,840274795428783;3,841321131545997;1,2698068027420264;1,0461975162655548;-5,178194107995132;1,9369637864348026;-1,1332172125525584;0,16181566158672772;26,77807238540864;4,531456141901656;1,8275506674130704;0,38732810158948333;-1,3880582441909286;0,33299870791590147;-1,8201671118148863;1,43148636045742;8,69532951244484;1,5840598532510055;2,277146557990677;0,7554493576597535;-2,694254669781517;0,8862220661280191;-1,338425683257108;0,5228558821351996;19,210686912780794;2,1462216172376283;2,69492143948705;0,650960420513875;0,8238191166250463;0,4933141147837539;-1,6876160955839512;1,1046150801328165;17,53676064839552;4,4540624527689285;0,6924880325542109;0,767920000938755;-3,8860132730825208;1,3168209410074037;-0,7311216874074743;0,15503863132334314;20,339110504628785;5,156121657577444;4,748125568725963;0,7129125743221633;-1,7037144385241754;0,6065236142534028;-5,1545013452949;2,0082457795466837;25,328251018531855;3,991755472945565;-2,4513240103567044;0,6099596179411664;-4,976691388219706;0,5833720418386471;0,4905049244907991;0,15447903748971803;37,84358309532935;6,910216718774405;3,3436002308966097;1,3911744380759838;-3,380607105340085;0,7004889018461339;0,7870572631087708;0,1478644782587586;26,219381024856894;1,869152011292343;-0,822829116040538;1,127278037288962;-6,190904952370828;1,890677888157462;-0,6914241501237579;0,10681144923474907;37,057108431784535;15,204227628168795;0,8337696036454257;1,1293375979578544;-7,630813188163453;0,8992038250617964;1,0207690582397924;0,24317860394488305;43,93408547009333;8,602157207112292;-0,14100430969990563;0,5323933980453406;-2,675887063691717;0,5593950351884639;-0,3436512633701347;0,7454302584285973;14,453794483316562;4,263426747121881;0,9184181123520074;0,2746133986512272;0,18773404942798083;0,20162350076004115;0,02353202135916413;0,15201522444091636;5,288266224293698;2,507368830227922;-0,5317660998990043;0,6531799126244698;-3,422377811720699;0,8760462970757402;-0,05843676461172691;0,8613550697644122;19,699339741451052;4,344044396549386;0,2822151254420506;0,6064613598017767;-1,95607090907248;0,42916836746597153;-0,6366197664627206;1,0675824224897412;10,190541992475087;4,80788150634833;8,113868890627003;0,7623535896142812;-1,7045933881515503;0,7931500634373144;-6,808135331388885;3,484860909592249;48,51386631769267;5,724257251356221;3,260913179577547;0,6132050249554417;0,23701372256506031;0,298141977376027;-2,7950493242758436;0,5382462895785329;20,23318874719468;5,428733364101142;5,069923892914678;1,0732711384910143;-2,0725717707760163;0,6350279852528314;-1,5578636843485598;0,2809580534139714;33,23989189088699;6,189646884756325;11,275955732762393;0,9717318276357818;-1,4638856627340993;0,9698384840673557;-8,751445321998;4,332970269879382;64,90438500768653;7,940038579906437;6,272230346964945;0,7338645619357821;-1,0878866257514779;0,8744530891149885;-3,362627433851615;1,6684197417526274;35,561012113307505;2,8009373702080422;0,5540236088157613;0,38444977466334856;-1,527318870093582;0,28009372118297465;0,3116259404534717;0,05672299402680347;9,424497215580798;1,5488505701138584;7,686578050479494;0,963612662753536;-1,5145515902827686;1,253523936532167;-3,2671348144826524;2,086512339573687;44,672349350900696;3,761045799202445;5,040327078164198;0,653376992635781;-0,6918542710624834;0,6000761342636888;-2,705352345358109;1,338191989899525;27,03515134252188;3,0554470948592733;72,53619120223414;0,7704095765534325;67,60337927878962;0,756142585045642;-0,5638406272837323;0,111933376779048;70,04565546725284;0,47133276365554166;700,4450987781055;4,6981516566522075
004;001;Valoxy;Isometric;Isometric;semaxone;VM;60%;5;Fixed_4.0;Not_Applied;S1_D1+S1_D3+S1_D2+S1_D4;0,21129283704462593;0,7324767458202834;-4,370998691027824;1,3270190964329578;-0,4333198592998773;0,7881829596419229;17,184328729468792;4,520913872705674;4,939062104311139;1,0447590331659813;-1,6836718885760926;0,5366434709322063;0,8318319775527254;0,06293657868897776;23,116602059209544;2,299223921225067;1,5479858281109558;0,8948883341888587;-8,946058279234627;2,1298480716706045;-1,4560644140966588;0,22732750510019217;37,36441265104133;8,67196212831336;2,771695285234479;0,5446566124465824;-1,8476803119795786;0,8708008732976096;0,6876766405323904;0,09985899897014118;13,54313372872868;5,059559006167858;0,21873911222457573;0,6008122908117541;-5,918723139886632;0,9529512703252154;-0,8720882852200849;0,13354723552028477;24,387466479184816;4,964589579212657;6,006624034581316;1,1298736169860712;0,149288501370688;0,7982905863715811;0,8854864964724755;0,059051790324621094;33,36717547668782;8,646830406025229;0,053152217334639394;1,0402905883846694;-11,513185278255746;1,9678831347541064;-1,6442532704968507;0,15399375293044007;56,731526340317075;13,115021495667394;2,3090211427408023;0,8830946804331673;-0,41455478296937115;0,6199178145886507;-2,2109025222386176;1,5072906560980206;12,081751667045308;2,857969161244474;4,749729732554668;0,5195638251259074;-4,579002031744656;1,5809763774705168;-1,4249320490781652;0,2684494843559539;35,1797252524472;6,429106384351744;5,771634070341836;1,2876638673626288;1,8336629062563703;0,731326569439983;0,6233241058115949;0,10322511813122041;41,58572672706158;10,775238573206053;2,691721166084671;0,8620370508337665;-9,767903765559641;3,0317548185284435;-1,669563748658927;0,30666558479974315;44,77090808069844;11,875945103323021;8,065407250621204;1,2127691619307301;0,5180499013980832;0,4929761755217367;-4,6445971658406835;0,9953062201381008;50,472316130256715;7,3002122620840275;-2,965668649086861;1,5324644609875002;-9,176715483099736;0,9961992532404633;1,0526396704423204;0,9080917809174726;62,37673634702645;8,17724364077259;6,240727417525427;1,2500528564139504;-6,174842929037309;0,5249906106204052;1,7756056238434366;0,13997073574137303;46,56306044553345;1,5177788136290145;-0,6525280111299161;0,9713051205681885;-11,015753953181378;2,5341304957116666;-1,4183368804869645;0,19235565253580467;57,988417738578526;15,485502152925097;1,871948437825889;0,9535673104237522;-13,047531527471623;0,8512921976242861;4,109751948395019;4,898492164069222;77,30204059613315;5,597907907636583;-1,370288228631597;0,9633186231192952;-4,257965624353308;0,7290872395510419;0,024023348237730013;0,5642170375675019;28,554462547027576;7,145222918416461;2,6469602996846158;1,0129695199086195;0,09164835097492488;0,4092987130017646;0,3531875117304174;0,1435804847596369;13,545707066181564;5,209550689267958;-1,841666578629702;0,9143211466256487;-6,595181681940014;1,7795858333790942;0,4246580340725089;1,9712446184358365;41,827549302276545;10,840889600184019;0,42301219327386896;0,38834790253764784;-2,864722163530947;0,6905890965894712;0,487872057592151;0,11664594700956107;16,0912633474016;5,427492055898842;12,711966527437053;0,8542850711994262;-3,237076742990266;1,4598167755277018;-4,6796675829323355;3,872462068697185;81,29454840098342;7,558907905255737;4,819723406440809;1,6634293037016412;1,7411951625302056;0,3765993645795464;0,1979343074387679;0,5477483906644709;31,966829627339344;8,417058628670302;10,35084764262518;0,8585781142473037;-6,8954788172173185;3,1432130618371876;-2,567800027762414;0,4888644430892716;73,0719227153354;9,599128323435528;15,997197306059075;0,8538038749392819;0,26762565681222117;0,6321107736403876;-10,769884102687172;3,8866179517572714;97,41217233605754;8,301541377701753;12,055409721895376;1,6584023321556463;-5,06538593583967;2,7825141398925557;-4,538693958897822;2,4287220487521775;83,42673407903041;15,508890035474916;6,116835113979232;3,8580882914507666;-0,8933507897926486;0,6668478287187923;0,7802995101836394;0,41826118796573697;24,493096690509958;12,936517185628643;12,553178878512545;1,8899447286565703;-11,000476968880772;6,55927591178549;-2,9493862329356917;0,771911566531573;99,83225161679856;24,775329177756557;12,827042332657271;2,1638661874413456;-0,14693071685408032;1,9411280676228535;-7,417952367797845;2,0942235344503843;77,69354526089927;17,293948398236864;72,46899921166637;0,5828559349183116;65,20931170457801;0,5569046444838175;-1,0145774627142194;0,16047230012104957;68,77568927508804;0,6929642972963096;687,6745302187117;6,958268508269616
004;002;Valoxy;Isometric;Isometric;semaxone;VL;20%;5;Fixed_4.0;Not_Applied;S1_D1+S1_D3+S1_D2+S1_D4;0,010109064931379374;1,0249764375292099;-1,5959519530047859;1,0915968527469593;-0,021264873674442974;0,48256603995976116;13,443060157870713;6,33208742698112;0,44124134938112525;0,42008908461182387;-1,6645910673061883;0,6638199874872308;0,23026760018830056;0,053256886774635956;11,347223934362788;4,97029825514299;1,407428363786298;1,0392925606138925;-1,8454928216439754;1,2922199569118322;-0,4067900034737753;0,09898244700454342;13,916916270319586;5,547397710200255;-0,4887912767060473;1,0947824702183138;-2,90696536036189;1,0906082213993042;0,9005975258275807;1,0473566716559508;19,677529128020915;11,205005086486258;1,9950629795053296;1,4473450217845847;-1,2219719112169387;1,4308451154891517;-0,5830241317343229;0,2302269606644215;16,57660567930228;6,705676056450632;0,9820939126899735;0,244488491672549;0,07302280999586874;0,3108313280729039;0,10963803777371303;0,03050301989104;5,399476902158862;1,858619476015822;1,7205646984985752;1,287350294464965;-2,0288292788644857;1,4307095285554987;-0,47379477053936975;0,10788293804028531;16,149379382037136;6,160484564502812;2,4666257265636093;1,7020139384673558;-0,4943134469500878;1,4548098067576105;-1,4691521030883308;1,330618999586208;18,54182649414067;9,52359460762991;-0,7577246236341881;1,1388191985148393;-4,2004120556444695;0,9900693826029608;0,6010157711970404;0,23385592815455214;29,300557057167005;9,564063116994557;0,7853989530776169;0,33851411083745364;-2,500293374562247;0,45868943436142595;0,38420215033904387;0,061790443344202264;15,793845568998218;3,2802662213831684;-0,4607443822310396;0,9725590584188567;-2,5364526505170772;1,2253222515839366;0,360628804264518;1,0773746557654726;17,463423080875913;9,765230384316393;-0,2254489817676626;1,033233887279464;-6,40718327129017;1,3876816592627406;0,8280173334483955;0,40728318521068807;42,767512017175946;10,014395239935284;-1,0737999059217578;1,0321303088533793;-5,657973501723536;0,7477450933353147;1,5111713657925088;1,5550936044682633;39,369587379951305;9,019331212410837;0,8932330304149962;0,295982430835942;-3,377384396432697;0,31667345542098646;0,4695575283899073;0,038283518468421186;21,85050572386974;2,3485394636764982;-1,009655257600298;1,010412791629705;-2,985550851215806;1,0942886758313382;0,22372923667688288;1,0566805751821742;21,822229884073533;9,091101030800841;-0,4507736898304363;0,8266016429348253;-8,861050755099658;0,8693948934707564;0,9926015186234926;0,19079073460180712;57,85709281882036;8,365810768279305;2,3584219157118724;1,226920223373959;-0,25999730594315673;1,1586987915287166;-0,3195654424523546;0,4743245590053147;16,020387687539703;9,527016136650255;-0,1964336187247693;0,3986911185647996;-0,9814794930773146;0,43078721652565993;0,10397801325051206;0,16887861789688546;6,941992479191311;3,6357350169605147;3,280608170989923;1,2708947852098542;0,07859641466433995;1,3063412902291718;-0,637973136276705;0,3226944351940966;21,08489546743234;12,415088364512489;1,5722929766456002;1,2993540050630883;-0,6148774562936936;1,108580529346998;-0,5995483742947317;0,32078458323890624;13,907517717079433;5,296425939040405;1,4717455292516235;2,0002687633615173;-1,6522796918829372;1,5996703185080656;0,19539854316912791;0,6848987252182427;18,21281391600286;6,853360085336024;0,1923594037672407;0,21885133607306634;-0,9225261155554417;0,245054272734377;0,13701769633814304;0,035953595116905636;5,311888440518469;2,5167945758095636;2,0473605288969816;1,9713695839225711;-1,685801008277354;1,5939127097632693;-0,4663306116044591;0,9852076140517038;20,676027645263407;3,6123605730224524;1,0509216576264016;1,893925594340944;-2,0036163060145666;1,6082330083890832;0,3973092387259325;0,5601611091638495;16,096179341154194;10,963858677338756;3,63023604838864;2,0196414038928383;-1,6101020754094422;2,2757636658239138;-2,2681732128747454;1,9866425009606556;26,945428995861448;14,90203014153976;0,5720308645118445;0,6253574277395249;-1,630485989331941;0,6150451694772333;0,24746223745134435;0,045548035566171846;10,43043974183359;5,056147321291912;5,027159433229563;2,118805622034187;-2,032552398135712;2,57567893773375;-0,8919483257447605;0,16605685769938305;35,87159606483551;16,46088735140005;2,5669910386429136;2,158610568244287;-1,302982530599469;2,114881957777512;-2,267515945568359;1,740511682303473;19,449854649730103;13,082812257093122;85,33773669834757;0,5454356162455337;83,14655151959614;0,38424717578776835;-0,2785865781372984;0,059614118064484745;84,51676734961684;0,5300489432459563;845,1968782507076;5,319507985659087
004;002;Valoxy;Isometric;Isometric;semaxone;VL;40%;5;Fixed_4.0;Not_Applied;S1_D1+S1_D3+S1_D2+S1_D4;0,15149589934724017;1,3201417814567156;-2,976516508339803;1,0760148096666775;0,6109472845602705;0,575051510052299;17,987047951491615;5,912485609003018;2,1229901019345867;0,6742260992330192;-1,4602810605964236;0,7087505299466955;0,4524720777984631;0,06974257793546143;11,788958558428641;3,3448270308044386;0,8231324460979647;1,3037945182738246;-3,8863795247809727;0,6247938693600141;-0,6369853221921639;0,16652908370453112;21,514444416969987;5,269903271615119;1,2698044883981776;1,0939452248852755;-2,8199284676087;1,7762659805426886;0,9830011197725353;0,27554473421601966;22,180474280002308;3,08560410073931;2,1624571645344686;1,1791946352624323;-2,256266374582156;0,36461525393495925;-0,6805711644361211;0,16174528240447728;14,701648948917938;5,248373113106688;2,4309596394781368;0,5180405219624321;0,018715553151212715;0,3644729996924607;0,34367315598524967;0,0617577745801673;12,636200324985726;3,371880737673986;1,914197940140874;1,2027146650530263;-4,077533733514274;0,6135283329126945;-0,7939671610166897;0,1497817809870375;19,356548198881015;3,9979740685747864;3,0301658009944474;1,1611586597218149;-0,46080864667557203;0,42244920359551336;-1,0609627079114634;0,8461738452541632;17,309689148810484;8,65499286534371;-0,4146879868160972;0,8169714733433125;-6,056453651150725;1,3872503103592084;1,0254970887961057;0,8887620515198449;37,7187651524766;13,507587003193226;3,4869834441574925;0,9431788976998576;-1,8036286598821356;0,6698965305672374;0,7254347086313577;0,05658189006155339;16,060233869967654;2,9216898105321834;-1,6226178358328476;1,6401450520589562;-6,865463428761801;0,7741863866604599;0,828725082611166;0,9429253642363807;44,4986596217192;8,294164235895158;1,8484266037975097;1,8235596911347247;-6,290673867849945;2,631129684901224;2,3391191009094654;2,1455801805582366;38,11195797687959;12,210439828280983;-0,39599128720172894;1,1501126665203962;-11,251299689394815;2,091039261473116;2,7631017678964946;0,2595171519122952;71,98374983358407;18,747418733164075;3,3035293728931143;1,198328429216962;-5,659074159773122;1,23263482564878;1,2144685304344514;0,10824414822429997;38,62526663370672;5,201772576885522;-1,5904263450368983;1,5989339250402115;-7,520491382799567;1,0432235793647628;1,0407677745831436;1,0262247827811604;49,2815589691431;11,744318439138738;1,8344912346424707;2,4957320716020157;-15,45580297110261;3,485711791408861;3,684554465625047;1,4557228430621656;100,5460340075613;18,01434547276883;4,577511345896099;0,8294637482408381;-0,8089675358995463;0,8747063119128368;-0,8638890630991041;0,24866363144009507;29,131001916699347;5,381538373250426;0,858925187862795;0,20768154255101653;-0,684577558464385;0,2712530799217488;0,1955395171309952;0,008706774956376057;4,631925106926733;0,5155108201029021;5,167716822781824;0,7527058141259784;-1,2905885793340692;0,9412531127151876;-0,9062837038828551;0,12392173084615069;30,940393068683687;4,810719543236857;4,283572516742533;0,8812963579149552;-0,4856003414944266;0,8215510995479688;-2,78667984800095;2,299687693945131;28,541724431187692;6,418078947371323;2,6351748196573395;1,346215639950673;-1,210117988328268;0,6604243332957153;-0,7847841458694006;0,3005516535671818;15,985479476889632;7,729852356979421;1,3581428818217094;0,1855520532023577;-0,9593809426160977;0,14443968576187666;0,319428060687082;0,023713008711153186;6,1757032127185285;0,4024827694463439;3,033931288773028;1,4807516411611155;-2,4803916289659766;0,6161413874315005;-1,4834471712539599;1,1226158537824495;20,715837001687163;6,490592192909216;2,4252207506212575;1,2533810614713379;-0,14303870902783497;0,8444005335610363;-0,525324593604034;0,6036484098158772;12,621671170004177;10,502847153948515;7,1737206527523485;7,6171127580177425;-1,5667027988455162;0,7601396087612066;-3,037778242090428;2,989625455495697;31,82945906216893;27,382301005810426;3,64565331309685;5,451227911417232;-0,6916048130752536;0,7304610229790081;-2,8105474354173388;6,057768914200234;15,094018870711912;16,23060084719147;4,6131198106855695;2,0772844975389204;-2,4326858814175525;1,1812209691728333;-2,36159125542174;1,9070176544251503;25,84964996958006;9,617455163636805;9,840883186037079;13,384114106655812;-0,852053205922771;0,7135068075220795;-3,664954633901543;6,7815898645100425;38,95037601878876;46,45337877847672;85,91475238346683;0,9124915876420011;81,66180217836683;0,6653272009919723;-0,6046956573395239;0,05624211555891605;84,02725552930283;0,685824319885028;840,2374557796757;6,860267875312596
004;002;Valoxy;Isometric;Isometric;semaxone;VL;60%;5;Fixed_4.0;Not_Applied;S1_D1+S1_D3+S1_D2+S1_D4;-2,074080117116018;0,49518174771612394;-6,393199287480477;0,652256838697478;0,6818083402988103;0,6355989668806484;44,44535296348565;6,185484697030926;4,9468733067270945;0,36906598820871006;0,19372982129102675;1,04858910960515;0,7071947111330367;0,0827942495178485;30,356195687178094;4,918422293270734;-3,335192083938788;1,113995184611574;-10,253961494899674;0,9170578643226112;-0,5443133553582608;1,2321121071938181;73,79888818978486;8,237905857617545;1,245303048091803;0,5218789128475726;-3,32200070393678;1,3301108048827546;0,6452292334919486;0,18471360537474144;19,578528660038934;8,027823554536775;0,33438673501388416;0,6987454289201835;-4,387091674817495;0,5927395197129779;-0,7186829496971217;0,07901799484486015;18,889495820178887;4,31813091239865;5,729398455789974;0,5975590517698086;1,1514483562899138;0,7420599872744227;0,7366132925360663;0,08424694298015185;34,836650622240974;4,601403807995033;-0,8303885914828484;1,0283413674870023;-9,50425865296884;0,9704784558699932;-1,3135174655413846;0,1117618387122651;52,251340617664866;5,938657126763924;3,3035121312946956;1,1033303623604491;0,05388119959326006;0,4012373244001512;-1,8376577046656828;1,3734157007955003;17,771007027297408;7,631836266842278;-3,303256074896788;0,989837985535242;-13,979525162509088;2,7988592992311507;2,3239236768617015;0,614423418969711;93,14373268113357;17,149919129076267;7,622186991862892;0,49502555216139793;-0,35610687412406417;0,9370977155387378;1,2027730824844607;0,07477791254134587;36,5616506619543;3,058342176113962;-7,281181120316089;2,1326474078612705;-17,16403049564354;3,109335107591136;1,5437272797457608;1,4859529907832187;128,25805469484885;20,48156002761846;1,8969081791628164;0,5520889182739919;-11,75973233965252;2,3601764214839784;2,1282194746320746;0,670758756001804;68,35961606275372;11,992143410694743;-4,187969819879793;1,0646626421627041;-18,418214505307013;2,073834581727826;3,0757479256487867;0,5955611840612982;126,95359227757015;13,890875306497367;7,465008664121305;0,5802773922688492;-5,1348701935443675;1,2114932171295485;1,878018345310959;0,10636329618381472;41,90258707367635;7,456648877998096;-8,255510422775632;2,1360274869611215;-17,256294704046265;2,2156941956514875;1,609914458422383;1,5116891774815637;135,49280284128696;16,733052852165656;0,779919756369981;0,7132848589113394;-21,327847118384845;1,18904384458013;2,528636127244623;0,43496323878324544;121,10804693557125;11,434857763202858;5,415065057333211;1,2272460335672546;-1,8031183152710863;0,9542866093152509;-1,4631836969163505;0,5620068893843194;31,091914931189024;5,772781293423896;2,470592575449409;0,5020785575684181;0,7421271741679542;0,5588843847128138;0,2852780071102039;0,06230975592214396;16,175140791926083;3,905870921774792;4,324467736638988;1,3474341961865877;-3,2704983137944454;1,0315363370035484;-1,0664250373148811;0,17547161281085538;27,524304766003887;3,686153717362003;7,140659791101892;1,1618714195189994;-0,3613778126885049;0,9911548677730869;-2,8990902963681773;1,0040944878513958;41,480801253848824;8,609263252658527;0,40820628410777066;1,2718783875033686;-3,3446038049398874;1,5668926502847218;1,6008305295222869;1,9865332977810009;20,857676803936577;4,924126180872764;3,0527870176576686;0,22173211592023104;-0,11951941619569433;0,5084322618530006;0,46974578645562726;0,05343921213708098;15,642006605426616;0,9205995206699886;-0,9099749728866193;2,3808579293312717;-5,235664400044833;1,2303365942082678;0,7167365980321299;1,61593876990083;36,022125731642376;6,134094284939942;2,703014288145689;0,7169598322025947;-1,9718685228839252;1,9727878882946974;1,3586063252355491;1,2354988688621011;18,242936086394415;5,860313539197485;23,795467497234217;1,2634064585636848;-3,1071314906679355;1,3994722042548458;-13,583442396251456;7,925991286590129;143,94286492061704;17,83509469623197;21,79676745397947;1,5439833145812323;1,1036537538209106;0,33488653354389125;-19,916101281364792;1,2416710730569849;126,84672884906297;17,746936881851262;4,056672476032979;1,6963448075012406;-5,238143169726245;1,4399301322376197;-1,5365659635562903;0,3858163748038328;35,01444653566406;4,4915130509810846;45,56029033780024;1,6310821300089888;-1,5569463108888841;1,112862134463148;-36,738891664342205;10,491353874355427;258,94943672516223;30,947705480504133;84,84199252209763;0,9252348352663208;77,7614714036213;0,3556468971620664;-1,1508869906576205;0,18962983559310548;81,35394945962598;0,40752138713845704;813,3973015099217;4,0904924049590345
005;001;Valoxy;Isometric;Isometric;semaxone;VL;20%;5;Fixed_4.0;Not_Applied;S1_D1+S1_D3+S1_D2+S1_D4;-5,845516752572605;1,2301151007541882;-17,567915234661967;2,768905251258347;0,21976434993245872;2,3158020418914753;119,87444827307044;18,308488889852214;27,676002126967347;3,168334480536709;8,562347394518936;1,3907410208884294;2,55118374481843;0,18314027665749835;186,93880360259286;22,828718797495593;-14,634860226570257;1,1005675003516437;-44,90035015606988;5,674877712492038;-3,9874659196658584;0,4434927351769427;306,8132518756633;35,62113239539317;10,826052051671468;1,7783127597660424;2,4898345624676117;2,345816852741767;1,164432250389446;0,14153609777769158;67,06435532952241;21,06744554044973;-4,669668589811198;2,58093032697759;-35,53011411372292;13,22086809112157;-1,1806488148992744;6,7836071533632145;170,6464440611801;69,90354787107421;29,29618148039533;2,481223386410412;11,585900879724967;2,9791509995821532;-1,372354778378887;3,715366923949565;203,2987408374224;29,46923580411251;-16,54100249342166;5,210341574533493;-64,03948921667924;14,509379104238063;2,051273407408989;9,011614927195584;373,9451848986024;93,0194620133759;11,101591802771267;2,725705524696458;-8,171865009041815;10,739850434232416;9,242091028093455;6,401650198952573;77,26587617692476;16,280920824325335;34,920721776624944;9,138657949735274;-9,401630037434918;2,8695110579322245;-54,82853685066912;8,915142142656606;85,70381285634339;29,007713369627467;5,6844741652971855;1,6697119295170497;-8,07202593153915;2,9108292443258987;2,8333631567175432;1,015626995846506;51,384761862875564;12,526587027444418;33,4144096928492;7,277344552729759;-14,71049953621905;4,4273783208244994;-47,40325040166215;20,676062081893196;122,45139288041995;49,71642934142148;37,906306430260855;9,871187647001067;-7,928857923456562;2,75763920916186;-8,057816677675993;46,178614957266284;66,64137341800264;10,91732880207883;6,786474227651889;3,7819510677988326;-10,049011077737136;5,061137091228367;-3,70649268991909;12,058913967337999;40,84591379891854;14,719990357145345;25,50492824522866;2,899924306910412;1,9511025087319311;0,9485891248333062;-14,68507803764401;9,283807033218984;133,64233033427564;22,94097517251098;-1,918558288072512;3,73302941362448;-26,53087371222083;5,411538356704342;6,351988260287509;1,9535480789753976;157,70099048557705;35,50372781267196;31,5464967119102;5,003764129916535;-1,4503121873346878;2,835616145090884;-22,881621714136955;23,6076704625041;114,37408096850876;32,612588146230145;-1,1134642404873658;0,7015898161125221;-7,43912285482422;1,2334812360649978;-0,8546452299338473;0,10848442771793115;38,249628680937704;7,167672949657673;11,939152500157386;0,4086257420852963;6,382254509095988;0,5227100837294201;-0,06472032819367934;1,120467706212996;95,11313201224155;4,67376273501565;-7,797069996895276;1,1589900638268573;-18,558724608416746;1,9568978595437942;-1,4003569022519244;0,17741193438421052;133,36276069317924;11,241730498978226;8,32438754229995;0,4504745378165735;2,7286277724088244;0,4586758243658835;-1,8369506785797554;0,334936807711497;56,863503331303846;4,479138602599076;4,630450097730757;2,4048930426598685;-2,2095119479143905;4,692363947620663;-2,698310289851012;2,1769762596391513;30,86954642438412;13,733573957343044;12,575721619969016;7,172254040712297;-0,26800656546401724;4,221078291522585;0,45567714642169294;2,381228923335964;52,82593973418308;25,60156414043424;3,575390999255295;6,4201155030284465;-12,605953085686895;12,342973593998453;-2,4735749713200144;1,4043946481746739;66,85341677001597;38,910630225747056;13,283410513948382;1,8796228814829736;1,5880789619189386;1,8165466271705173;-4,537503059087637;5,051885664734944;52,358262849686845;11,86696716491137;31,779397108325945;7,362916080046295;-10,283232614974159;5,679271296882572;-11,890544389712717;11,154353559585688;233,89673854123012;52,08741034227045;9,046817385425902;1,0002197135975879;2,380806240813237;1,5096961684442374;0,9804531878588876;0,202069277533652;61,72257372839039;13,123558081998555;28,35185987260504;9,523776633340264;-18,171704406382116;6,8090907215885075;-6,279334986205366;1,3814853992041165;207,32467002094387;54,09836307951918;38,297906237728554;5,668246172214916;-3,294123488821903;4,482349315641649;-24,472514093120047;13,95162553512609;266,738371725262;56,814789286789;61,11358255575609;2,8045738611154714;27,691193318001904;8,71857646586035;7,568037901187526;1,1471599427026982;45,86153914105255;6,21964149353269;457,5849132591331;62,385915955736635
